"Frame","Time (aligned)","Time [ s]","Intensity Ch3-T2","background","Intensity (bg-subst)","bleach-Corrected","Normalized"
1.0,-13.733333333333334,0.0,140.292,134.075,6.217000000000013,6.217062170310864,0.9867741610175352
2.0,-10.733333333333334,180.0,140.087,133.827,6.259999999999991,6.2601252012519994,0.9936091395111935
3.0,-7.733333333333333,360.0,142.238,135.802,6.436000000000007,6.436193082896236,1.0215546918367444
4.0,-4.733333333333333,540.0,139.675,133.746,5.929000000000002,5.929237164743265,0.9410904810721835
5.0,-0.3333333333333333,804.0,142.618,135.959,6.658999999999992,6.659332958323881,1.0569715265623432
6.0,2.55,977.0,143.944,137.862,6.081999999999994,6.082364930947812,0.9653949706985799
7.0,5.833333333333334,1174.0,140.696,134.853,5.842999999999989,5.843409024315673,0.92746781027655
8.0,8.833333333333332,1354.0,141.488,135.48,6.00800000000001,6.008480659226122,0.953668034688719
9.0,11.833333333333332,1534.0,141.672,135.568,6.103999999999985,6.104549384721927,0.9689160945285977
10.0,14.833333333333332,1714.0,141.426,135.434,5.99199999999999,5.992599229960989,0.9511473289905038
11.0,17.833333333333336,1894.0,141.37,135.566,5.804000000000002,5.80463847511549,0.9213141359025189
12.0,20.833333333333336,2074.0,141.848,135.605,6.243000000000023,6.243749204951421,0.9910099359697688
13.0,23.833333333333336,2254.0,143.648,138.158,5.490000000000009,5.49071374639252,0.8714878992778372
14.0,26.833333333333336,2434.0,141.595,135.604,5.9909999999999854,5.991838798714525,0.9510266330919129
15.0,29.833333333333336,2614.0,141.49,135.688,5.802000000000021,5.802870365275785,0.921033500924797
16.0,32.83333333333333,2794.0,141.301,135.674,5.626999999999981,5.627900392029423,0.8932622089827691
17.0,35.83333333333333,2974.0,145.873,140.046,5.826999999999998,5.82799067420492,0.9250206046546618
18.0,38.83333333333333,3154.0,143.418,137.685,5.733000000000004,5.734032032880177,0.9101074580713239
19.0,41.83333333333333,3334.0,141.455,135.585,5.8700000000000045,5.871115405960215,0.9318653763219218
20.0,44.83333333333333,3514.0,141.048,135.248,5.800000000000011,5.801160116007745,0.9207620495961195
21.0,47.83333333333333,3694.0,143.204,137.613,5.591000000000008,5.592174233290188,0.8875917412681886
22.0,50.83333333333333,3874.0,143.09,137.413,5.6769999999999925,5.678249077393468,0.9012535689527077
23.0,53.83333333333333,4054.0,143.084,137.487,5.597000000000008,5.598287458052009,0.8885620343214357
24.0,56.83333333333333,4234.0,142.772,137.198,5.573999999999984,5.575337920544027,0.8849194761484896
25.0,59.83333333333333,4414.0,140.381,134.688,5.693000000000012,5.694423427921088,0.9038207672104498
26.0,62.83333333333333,4594.0,140.374,134.731,5.643000000000001,5.644467370749932,0.8958917253169622
27.0,65.83333333333334,4774.0,140.491,134.489,6.0020000000000095,6.0036207587926,0.9528966696868024
28.0,68.83333333333334,4954.0,140.283,134.587,5.695999999999998,5.69759510330404,0.9043241765747597
29.0,71.83333333333334,5134.0,142.401,136.541,5.860000000000014,5.861699646436835,0.9303709038605725
30.0,74.83333333333334,5314.0,142.308,136.946,5.361999999999995,5.363608841314125,0.8513137667641077
31.0,77.83333333333334,5494.0,142.344,136.768,5.575999999999993,5.577728827954481,0.885298961762336
32.0,80.83333333333334,5674.0,139.979,134.394,5.585000000000008,5.586787485982512,0.8867367549564015
33.0,83.83333333333334,5854.0,139.916,134.519,5.396999999999991,5.39878130389897,0.8568963516421909
34.0,86.83333333333334,6034.0,140.113,134.241,5.871999999999986,5.8739968194400545,0.9323227152211033
35.0,89.83333333333334,6214.0,139.884,134.494,5.389999999999986,5.391886830176006,0.8558020584958036
36.0,92.83333333333334,6394.0,139.915,134.538,5.376999999999981,5.378936068471397,0.8537465093207236
37.0,95.83333333333334,6574.0,139.701,134.243,5.457999999999998,5.46001983364618,0.8666161513092785
38.0,98.83333333333334,6754.0,142.089,136.626,5.462999999999994,5.465076334478559,0.8674187207914341
39.0,101.83333333333334,6934.0,141.764,136.477,5.287000000000006,5.289062332128632,0.8394817202052709
40.0,104.83333333333334,7114.0,139.208,133.954,5.253999999999991,5.256102020376039,0.8342502486379028
41.0,107.83333333333334,7294.0,139.556,134.168,5.388000000000005,5.390209532923302,0.8555358373218837
42.0,110.83333333333334,7474.0,143.857,138.442,5.414999999999992,5.4172747776698635,0.8598316419070559
43.0,113.83333333333334,7654.0,139.37,133.795,5.575000000000017,5.57739776548265,0.885246415417465
44.0,116.83333333333334,7834.0,139.457,133.527,5.930000000000007,5.932609774108206,0.9416257827444786
45.0,119.83333333333334,8014.0,139.391,133.822,5.568999999999988,5.571506613945827,0.884311369899835
46.0,122.83333333333334,8194.0,139.639,133.802,5.8370000000000175,5.83968563764932,0.9268768331151216
47.0,125.83333333333334,8374.0,139.337,133.678,5.658999999999992,5.661660355134475,0.8986206014769051
48.0,128.83333333333331,8554.0,139.339,133.66,5.679000000000002,5.68172657432549,0.9018055184142916
49.0,131.83333333333331,8734.0,141.582,136.196,5.385999999999996,5.3886397866949185,0.8552866866820652
50.0,134.83333333333331,8914.0,141.652,136.043,5.6089999999999804,5.611805201241849,0.8907075749851119
51.0,137.83333333333331,9094.0,138.956,133.688,5.268000000000001,5.270687365219883,0.8365652393887056
52.0,140.83333333333331,9274.0,141.438,136.024,5.413999999999987,5.4168160120996784,0.8597588264842368
53.0,143.83333333333331,9454.0,138.973,133.844,5.129000000000019,5.131719090495351,0.8145081489265561
54.0,146.83333333333331,9634.0,139.018,133.9,5.117999999999995,5.12076446633873,0.8127694273623688
55.0,149.83333333333331,9814.0,138.881,133.419,5.461999999999989,5.465004926278967,0.8674073868584105
56.0,152.83333333333331,9994.0,141.177,136.045,5.132000000000005,5.134874724847837,0.8150090122532125
57.0,155.83333333333331,10174.0,141.269,135.703,5.5660000000000025,5.569173524368525,0.8839410611515625
58.0,158.83333333333331,10354.0,138.834,133.612,5.222000000000008,5.225029638510246,0.8293184299257053
59.0,161.83333333333331,10534.0,138.82,133.569,5.251000000000005,5.254099004116322,0.8339323292356124
60.0,164.83333333333331,10714.0,141.085,135.935,5.150000000000006,5.153090927185433,0.8179002939046084
61.0,167.83333333333331,10894.0,138.58,133.061,5.5190000000000055,5.522367617018772,0.8765120120781466
62.0,170.83333333333331,11074.0,140.667,135.593,5.074000000000012,5.077146855424389,0.805846425752199
63.0,173.83333333333331,11254.0,140.958,135.552,5.406000000000006,5.4094068530460335,0.8585828423121756
64.0,176.83333333333331,11434.0,140.552,135.311,5.2409999999999854,5.244355313585805,0.8323858074565027
65.0,179.83333333333331,11614.0,138.087,132.927,5.159999999999997,5.163355090286212,0.8195294252619698
66.0,182.83333333333331,11794.0,138.003,132.887,5.1159999999999854,5.119377674509964,0.8125493153052832
67.0,185.83333333333331,11974.0,140.376,134.896,5.480000000000018,5.483672830260761,0.8703703627439595
68.0,188.83333333333331,12154.0,139.944,135.058,4.885999999999996,4.889323609899291,0.7760350581889642
69.0,191.83333333333331,12334.0,139.911,134.911,5.0,5.003451190523805,0.7941494254792762
70.0,194.83333333333331,12514.0,137.715,132.539,5.176000000000016,5.1796244684159625,0.8221117063321072
71.0,197.83333333333331,12694.0,137.339,132.268,5.070999999999998,5.074601688448096,0.8054424560091145
72.0,200.83333333333331,12874.0,137.5,132.342,5.157999999999987,5.161715097274514,0.8192691250295029
73.0,203.83333333333331,13054.0,139.649,134.544,5.10499999999999,5.108728010558289,0.8108589971255459
74.0,206.83333333333331,13234.0,139.59,134.464,5.126000000000005,5.129794643845065,0.8142027001186243
75.0,209.83333333333331,13414.0,137.209,132.256,4.953000000000003,4.956716143379576,0.7867316233610846
76.0,212.83333333333331,13594.0,139.388,134.371,5.016999999999996,5.020814369276723,0.7969053149455789
77.0,215.83333333333331,13774.0,137.03,131.938,5.092000000000013,5.095922349910932,0.8088264784381964
78.0,218.83333333333331,13954.0,136.857,132.271,4.586000000000013,4.589578475423999,0.7284594114464523
79.0,221.83333333333331,14134.0,139.36,134.358,5.0020000000000095,5.005953141285221,0.7945465359304623
80.0,224.83333333333331,14314.0,139.315,134.402,4.913000000000011,4.916931972579338,0.780417066631918
81.0,227.83333333333331,14494.0,139.504,134.25,5.253999999999991,5.25825746404015,0.8345923613681615
82.0,230.83333333333331,14674.0,139.349,134.467,4.881999999999977,4.886004881777098,0.7755083085653138
83.0,233.83333333333331,14854.0,139.036,134.201,4.835000000000008,4.839014715876618,0.7680500139138704
84.0,236.83333333333331,15034.0,139.216,134.096,5.1200000000000045,5.124302606841885,0.8133310021915922
85.0,239.83333333333331,15214.0,136.718,131.74,4.97799999999998,4.982233098812108,0.7907816829549714
86.0,242.83333333333331,15394.0,136.689,131.918,4.770999999999987,4.775104824821666,0.7579062148977317
87.0,245.83333333333331,15574.0,136.832,131.974,4.858000000000004,4.862228299043387,0.7717344815009871
88.0,248.83333333333331,15754.0,139.046,134.276,4.769999999999982,4.774199447485871,0.75776251310797
89.0,251.83333333333331,15934.0,136.618,131.835,4.782999999999987,4.78725876486924,0.7598352922762361
90.0,254.83333333333331,16114.0,138.746,134.222,4.524000000000001,4.528073432769791,0.718697310762743
91.0,257.83333333333337,16294.0,136.505,131.726,4.778999999999996,4.783350869345302,0.7592150298079929
92.0,260.83333333333337,16474.0,138.695,134.074,4.620999999999981,4.625253276207038,0.7341217276092632
93.0,263.83333333333337,16654.0,136.578,131.718,4.860000000000014,4.864521902358694,0.7720985229767144
94.0,266.83333333333337,16834.0,136.331,131.751,4.579999999999984,4.584307224078145,0.727622756691871
95.0,269.83333333333337,17014.0,138.647,134.294,4.35299999999998,4.357137314913404,0.6915662736804974
96.0,272.83333333333337,17194.0,136.393,131.863,4.530000000000001,4.5343508880921375,0.7196936705447982
97.0,275.83333333333337,17374.0,138.991,134.086,4.905000000000001,4.909760158303542,0.7792787539013863
98.0,278.83333333333337,17554.0,138.841,134.091,4.75,4.754657281695293,0.754660774099383
99.0,281.83333333333337,17734.0,138.662,134.142,4.52000000000001,4.5244770157571494,0.7181264862666867
100.0,284.83333333333337,17914.0,138.272,133.984,4.2879999999999825,4.292290144714828,0.681273709409122
101.0,287.83333333333337,18094.0,138.449,133.978,4.471000000000004,4.475517991201493,0.7103556937192272
102.0,290.83333333333337,18274.0,136.25,131.713,4.537000000000006,4.541630100950061,0.7208490296137564
103.0,293.83333333333337,18454.0,136.105,131.503,4.602000000000004,4.606742501969242,0.7311836914085775
104.0,296.83333333333337,18634.0,136.356,131.631,4.724999999999994,4.729916556166055,0.7507339179721171
105.0,299.83333333333337,18814.0,138.522,133.816,4.705999999999989,4.710943895090691,0.7477225709400226
106.0,302.83333333333337,18994.0,136.287,131.432,4.855000000000018,4.860149028503004,0.7714044589940845
107.0,305.83333333333337,19174.0,136.117,131.492,4.625,4.629951398525806,0.7348674151353746
108.0,308.83333333333337,19354.0,135.843,131.316,4.526999999999987,4.531891801097096,0.719303363444768
109.0,311.83333333333337,19534.0,138.162,133.555,4.606999999999999,4.612024367782987,0.7320220308950081
110.0,314.83333333333337,19714.0,138.046,133.706,4.340000000000003,4.344776626663025,0.6896043811589598
111.0,317.83333333333337,19894.0,135.819,131.31,4.508999999999986,4.514007768797496,0.7164648039315107
112.0,320.83333333333337,20074.0,135.762,131.395,4.36699999999999,4.37189378000523,0.6939084246935768
113.0,323.83333333333337,20254.0,138.107,133.717,4.389999999999986,4.394963503851504,0.6975700588818312
114.0,326.83333333333337,20434.0,135.376,131.197,4.179000000000002,4.183766776546392,0.664048844570775
115.0,329.83333333333337,20614.0,135.391,131.45,3.9410000000000025,3.9455347569855013,0.626236579743776
116.0,332.83333333333337,20794.0,138.038,133.577,4.461000000000013,4.466177762521675,0.7088732095383141
117.0,335.83333333333337,20974.0,135.828,131.31,4.518000000000001,4.523289153551468,0.7179379483850787
118.0,338.83333333333337,21154.0,138.055,133.499,4.556000000000012,4.561379253135189,0.7239836215712488
119.0,341.83333333333337,21334.0,135.17,131.056,4.113999999999976,4.118898574073477,0.6537529420498701
120.0,344.83333333333337,21514.0,137.686,133.43,4.256,4.261110265546096,0.6763248286894983
121.0,347.83333333333337,21694.0,135.493,130.956,4.537000000000006,4.542493092650857,0.720986003941532
122.0,350.83333333333337,21874.0,137.428,133.196,4.231999999999999,4.237166190735568,0.6725244172274205
123.0,353.83333333333337,22054.0,134.829,130.858,3.9710000000000036,3.9758873350949164,0.6310541509660275
124.0,356.83333333333337,22234.0,134.509,130.485,4.0239999999999725,4.028992854930278,0.6394830766137694
125.0,359.83333333333337,22414.0,134.635,130.565,4.069999999999993,4.075090681012777,0.6467997387945845
126.0,362.83333333333337,22594.0,136.848,132.455,4.393000000000001,4.398538668628471,0.6981375102160222
127.0,365.83333333333337,22774.0,133.921,129.878,4.043000000000006,4.048137871858064,0.6425217800236851
128.0,368.83333333333337,22954.0,136.291,132.104,4.186999999999983,4.192362791454315,0.665413206896017
129.0,371.83333333333337,23134.0,133.702,129.687,4.014999999999986,4.020182692117692,0.6380847246623712
130.0,374.83333333333337,23314.0,135.536,131.775,3.7609999999999957,3.7658924794225963,0.5977236981174772
131.0,377.83333333333337,23494.0,133.288,129.287,4.001000000000005,4.006244744557648,0.6358724890222729
132.0,380.83333333333337,23674.0,133.022,129.097,3.924999999999983,3.930184420965042,0.6238001693407628
133.0,383.83333333333337,23854.0,132.776,129.272,3.504000000000019,3.508663420487216,0.556896216926695
134.0,386.83333333333337,24034.0,134.625,131.13,3.4950000000000045,3.4996864392130296,0.5554713874939755
135.0,389.83333333333337,24214.0,132.709,128.534,4.175000000000011,4.180640056181351,0.6635525704817552
136.0,392.83333333333337,24394.0,135.013,130.897,4.116000000000014,4.121601568203004,0.6541819621708423
137.0,395.83333333333337,24574.0,134.566,130.728,3.837999999999994,3.8432616634164662,0.610003760554161
138.0,398.83333333333337,24754.0,131.97,128.623,3.3470000000000084,3.3516220484799404,0.53197055849472
139.0,401.83333333333337,24934.0,131.997,128.402,3.5950000000000273,3.6000005245594697,0.5713932722514872
140.0,404.83333333333337,25114.0,134.241,130.677,3.5640000000000214,3.568993094350528,0.5664717626877172
141.0,407.83333333333337,25294.0,132.027,128.334,3.6929999999999836,3.698210802752625,0.5869812400427926
142.0,410.83333333333337,25474.0,132.081,128.148,3.9329999999999927,3.938588827128145,0.6251341194627432
143.0,413.83333333333337,25654.0,132.32,128.52,3.799999999999983,3.805437887162643,0.6040003582948724
144.0,416.83333333333337,25834.0,134.221,130.875,3.3460000000000036,3.350821710798587,0.5318435286336033
145.0,419.83333333333337,26014.0,132.253,128.677,3.5759999999999934,3.5811889610876326,0.5684074946842312
146.0,422.83333333333337,26194.0,134.515,131.262,3.252999999999986,3.2577528487352985,0.517071608108516
147.0,425.83333333333337,26374.0,134.999,131.324,3.674999999999983,3.6804062226000682,0.5841552912005552
148.0,428.83333333333337,26554.0,133.059,129.013,4.045999999999992,4.05199251336605,0.6431335899969279
149.0,431.83333333333337,26734.0,132.687,129.276,3.4110000000000014,3.4160861782618213,0.5422023264646485
150.0,434.83333333333337,26914.0,134.599,131.333,3.265999999999991,3.2709026760878053,0.519158753048977
151.0,437.83333333333337,27094.0,134.995,131.403,3.592000000000013,3.5974280171215716,0.5709849630213069
152.0,440.83333333333337,27274.0,135.193,131.635,3.558000000000021,3.5634122722849146,0.5655859727662519
153.0,443.83333333333337,27454.0,132.78,129.257,3.522999999999996,3.5283943155991335,0.5600279111154977
154.0,446.83333333333337,27634.0,132.79,129.326,3.4639999999999986,3.4693386697205844,0.5506545794969978
155.0,449.83333333333337,27814.0,135.308,131.534,3.774000000000001,3.7798542358607263,0.5999397127105688
156.0,452.83333333333337,27994.0,132.782,129.291,3.491000000000014,3.496450210058557,0.5549577321337292
157.0,455.83333333333337,28174.0,132.844,129.376,3.4679999999999893,3.4734490363742654,0.5513069782498251
158.0,458.83333333333337,28354.0,135.073,131.431,3.641999999999996,3.6477589083395396,0.578973498698503
159.0,461.83333333333337,28534.0,137.022,133.832,3.1899999999999977,3.195076134457477,0.5071235393177321
160.0,464.83333333333337,28714.0,132.856,129.591,3.2649999999999864,3.270228181429785,0.5190516970340867
161.0,467.83333333333337,28894.0,133.046,129.413,3.6329999999999814,3.6388538410775704,0.5775600834815542
162.0,470.83333333333337,29074.0,132.73,129.432,3.298000000000002,3.303347089973472,0.5243083411365179
163.0,473.83333333333337,29254.0,135.453,131.894,3.5589999999999975,3.5648059005234494,0.565807169900554
164.0,476.83333333333337,29434.0,133.113,129.384,3.7290000000000134,3.7351205775017395,0.5928395716813811
165.0,479.83333333333337,29614.0,135.412,131.798,3.6140000000000043,3.6199680222643775,0.5745625200819934
166.0,482.83333333333337,29794.0,133.118,129.362,3.7560000000000002,3.7622401378814985,0.5971439972617937
167.0,485.83333333333337,29974.0,135.08,131.734,3.3460000000000036,3.3515924884281,0.5319658667135289
168.0,488.83333333333337,30154.0,132.688,129.518,3.1699999999999875,3.175330076010202,0.5039894383993334
169.0,491.83333333333337,30334.0,133.06,129.484,3.5759999999999934,3.5820485495847874,0.568543928854401
170.0,494.83333333333337,30514.0,135.124,131.645,3.478999999999985,3.4849193300049173,0.5531275470432437
171.0,497.83333333333337,30694.0,132.545,129.562,2.9829999999999757,2.988105293782127,0.4742730591282602
172.0,500.83333333333337,30874.0,135.248,131.989,3.258999999999986,3.26461030347785,0.5181600255901059
173.0,503.83333333333337,31054.0,132.809,129.394,3.414999999999992,3.420913063325001,0.5429684512560802
174.0,506.83333333333337,31234.0,132.58,129.345,3.2350000000000136,3.2406337999845927,0.5143544670367949
175.0,509.83333333333337,31414.0,134.541,131.592,2.948999999999984,2.9541652682915194,0.46888608707281854
176.0,512.8333333333333,31594.0,132.415,129.457,2.9579999999999984,2.9632106640393068,0.47032177527338354
177.0,515.8333333333333,31774.0,135.035,131.493,3.5420000000000016,3.5482748916408866,0.5631833627109198
178.0,518.8333333333333,31954.0,132.227,129.306,2.9209999999999923,2.9262040101950335,0.46444806695281465
179.0,521.8333333333333,32134.0,134.547,131.377,3.1699999999999875,3.175679381530015,0.5040448802868053
180.0,524.8333333333333,32314.0,134.517,131.485,3.0319999999999823,3.037462514788413,0.4821070535478784
181.0,527.8333333333333,32494.0,131.938,129.113,2.8249999999999886,2.8301178802844222,0.4491972446784695
182.0,530.8333333333333,32674.0,132.123,129.028,3.094999999999999,3.1006380290501507,0.49213429203685116
183.0,533.8333333333333,32854.0,132.293,129.379,2.9140000000000157,2.91933750232508,0.4633582125558535
184.0,536.8333333333333,33034.0,132.271,129.213,3.0579999999999927,3.0636318997588243,0.48626066697349923
185.0,539.8333333333333,33214.0,132.134,129.166,2.9679999999999893,2.973495882123482,0.4719542484846635
186.0,542.8333333333333,33394.0,134.745,131.453,3.2920000000000016,3.298128818033835,0.5234800952907893
187.0,545.8333333333333,33574.0,132.19,129.103,3.086999999999989,3.0927780908311324,0.49088676004678045
188.0,548.8333333333333,33754.0,134.335,131.361,2.974000000000018,2.979596378947909,0.4729225213554836
189.0,551.8333333333333,33934.0,132.094,129.06,3.033999999999992,3.0397396822911973,0.48246848632601386
190.0,554.8333333333333,34114.0,132.042,129.014,3.0279999999999916,3.033758669003145,0.4815191779215497
191.0,557.8333333333333,34294.0,131.646,129.284,2.3619999999999948,2.3665157311504235,0.37561415845130486
192.0,560.8333333333333,34474.0,131.644,129.052,2.592000000000013,2.596981420633529,0.41219374880332604
193.0,563.8333333333333,34654.0,131.94,128.821,3.1189999999999998,3.125025482720465,0.4960050767379916
