"Frame","Time (aligned)","Time [ s]","Intensity Ch3-T2","background","Intensity (bg-subst)","bleach-Corrected","Normalized"
1.0,-13.733333333333334,0.0,213.402,206.264,7.137999999999977,7.138071380356878,1.0066363725361858
2.0,-10.733333333333334,180.0,213.011,205.907,7.103999999999985,7.104142081420794,1.001851541370487
3.0,-7.733333333333333,360.0,210.816,203.967,6.8489999999999895,6.84920547308207,0.9658994684686969
4.0,-4.733333333333333,540.0,211.53,204.209,7.320999999999998,7.321292845856876,1.0324749193331866
5.0,-0.3333333333333333,804.0,212.701,205.659,7.042000000000002,7.042352108802649,0.9931376982914436
6.0,2.55,977.0,196.299,188.331,7.968000000000018,7.9684780943427045,1.1237432992890806
7.0,5.833333333333334,1174.0,193.039,184.393,8.645999999999987,8.646605241183181,1.219375216489057
8.0,8.833333333333332,1354.0,194.276,186.007,8.269000000000005,8.26966154646151,1.166217267613791
9.0,11.833333333333332,1534.0,195.938,188.218,7.719999999999999,7.720694831266937,1.0888000167374148
10.0,14.833333333333332,1714.0,195.489,187.963,7.5260000000000105,7.526752637631265,1.0614495944902556
11.0,17.833333333333336,1894.0,198.121,190.594,7.527000000000015,7.527828015540035,1.0616012481316253
12.0,20.833333333333336,2074.0,195.502,187.991,7.510999999999996,7.511901374081359,1.0593552161531885
13.0,23.833333333333336,2254.0,195.337,187.595,7.74199999999999,7.743006525422725,1.0919464916986943
14.0,26.833333333333336,2434.0,196.361,188.649,7.711999999999989,7.713079755581116,1.087726111510569
15.0,29.833333333333336,2614.0,196.108,188.68,7.427999999999997,7.4291142835691755,1.047680284362041
16.0,32.83333333333333,2794.0,198.47,190.976,7.494,7.495199135928316,1.0569998067531254
17.0,35.83333333333333,2974.0,194.015,186.22,7.7949999999999875,7.796325262644121,1.0994656908443425
18.0,38.83333333333333,3154.0,196.073,188.332,7.741000000000014,7.742393505411738,1.0918600414228046
19.0,41.83333333333333,3334.0,195.834,188.206,7.628000000000014,7.629449457694134,1.0759322675976684
20.0,44.83333333333333,3514.0,193.354,186.536,6.818000000000012,6.8193637363691035,0.9616910799566982
21.0,47.83333333333333,3694.0,195.437,188.421,7.0160000000000196,7.017473514713649,0.989629229914892
22.0,50.83333333333333,3874.0,193.332,186.142,7.189999999999998,7.1915819740107585,1.0141826279625792
23.0,53.83333333333333,4054.0,194.793,187.788,7.0049999999999955,7.006611335296451,0.9880974064987722
24.0,56.83333333333333,4234.0,192.83,186.08,6.75,6.751620194415553,0.9521376432227179
25.0,59.83333333333333,4414.0,194.062,187.606,6.456000000000017,6.45761420176683,0.910675865919923
26.0,62.83333333333333,4594.0,192.243,185.483,6.759999999999991,6.761757828507794,0.9535672886640335
27.0,65.83333333333334,4774.0,191.568,185.004,6.564000000000021,6.5657725192793555,0.9259287389438661
28.0,68.83333333333334,4954.0,191.297,185.417,5.8799999999999955,5.88164663051751,0.8294508576892116
29.0,71.83333333333334,5134.0,191.049,184.645,6.403999999999996,6.40585742931423,0.9033769406360934
30.0,74.83333333333334,5314.0,191.248,184.651,6.59699999999998,6.598979396894668,0.9306116916694327
31.0,77.83333333333334,5494.0,192.029,186.551,5.478000000000009,5.47969844324511,0.7727666857857421
32.0,80.83333333333334,5674.0,191.887,185.866,6.020999999999987,6.0229270283080725,0.8493747250147371
33.0,83.83333333333334,5854.0,191.501,185.824,5.6769999999999925,5.678873719146647,0.8008550960227373
34.0,86.83333333333334,6034.0,189.57,184.12,5.449999999999989,5.4518533150456925,0.7688398661519961
35.0,89.83333333333334,6214.0,188.92,183.597,5.322999999999979,5.32486337607177,0.7509312904729855
36.0,92.83333333333334,6394.0,188.374,183.813,4.561000000000007,4.562642255588277,0.643440140145541
37.0,95.83333333333334,6574.0,189.976,185.226,4.75,4.751757825177604,0.6701098945956564
38.0,98.83333333333334,6754.0,189.183,185.29,3.8930000000000007,3.894479621110207,0.5492134541409526
39.0,101.83333333333334,6934.0,191.042,186.892,4.150000000000006,4.151618815648539,0.5854761436314578
40.0,104.83333333333334,7114.0,186.119,182.585,3.533999999999992,3.5354138827576915,0.4985767186563696
41.0,107.83333333333334,7294.0,187.761,184.663,3.0979999999999848,3.0992704404224747,0.43707020950237774
42.0,110.83333333333334,7474.0,185.76,182.818,2.941999999999979,2.9432358995207104,0.41506566011163626
43.0,113.83333333333334,7654.0,184.378,182.205,2.1729999999999734,2.1739345909226215,0.30657603631695185
44.0,116.83333333333334,7834.0,186.438,184.6,1.8379999999999939,1.8388088979444914,0.2593154117102091
45.0,119.83333333333334,8014.0,183.742,182.771,0.9710000000000036,0.9714370483285023,0.13699552923604588
46.0,122.83333333333334,8194.0,183.545,182.429,1.1159999999999854,1.116513478090892,0.1574547265758757
47.0,125.83333333333334,8374.0,185.216,183.787,1.429000000000002,1.429671787857782,0.20161743218299513
48.0,128.83333333333331,8554.0,185.074,184.264,0.8100000000000023,0.810388893326934,0.11428394204170224
49.0,131.83333333333331,8734.0,184.766,183.457,1.3089999999999975,1.3096415671711177,0.18469034088502315
50.0,134.83333333333331,8914.0,182.882,181.739,1.1430000000000007,1.143571642898816,0.16127056581568633
51.0,137.83333333333331,9094.0,182.244,181.359,0.8849999999999909,0.8854514651138095,0.12486953455688939
52.0,140.83333333333331,9274.0,182.521,181.191,1.329999999999984,1.3306917798471563,0.1876589172133063
53.0,143.83333333333331,9454.0,184.781,183.484,1.296999999999997,1.2976875921958335,0.1830045485518696
54.0,146.83333333333331,9634.0,184.588,183.233,1.3549999999999898,1.3557318975945551,0.19119016423424323
55.0,149.83333333333331,9814.0,182.601,180.93,1.6709999999999923,1.671919302785084,0.23578004371884853
56.0,152.83333333333331,9994.0,184.958,183.089,1.8689999999999998,1.8700469331139118,0.26372071122775625
57.0,155.83333333333331,10174.0,183.166,181.791,1.375,1.3757839734111963,0.1940179797303773
58.0,158.83333333333331,10354.0,182.945,181.056,1.8889999999999816,1.8900959377912183,0.26654809362083004
59.0,161.83333333333331,10534.0,184.956,182.911,2.0449999999999875,2.0462069060022476,0.28856342106425015
60.0,164.83333333333331,10714.0,182.816,180.986,1.8300000000000125,1.8310983294659022,0.2582280397479676
61.0,167.83333333333331,10894.0,184.857,182.374,2.483000000000004,2.484515092056101,0.35037521012485595
62.0,170.83333333333331,11074.0,183.103,180.287,2.8160000000000025,2.817746461347075,0.39736869042563167
63.0,173.83333333333331,11254.0,184.524,182.022,2.5020000000000095,2.5035767566261957,0.3530633542824144
64.0,176.83333333333331,11434.0,184.626,181.993,2.6330000000000098,2.6346856593534658,0.37155280097130144
65.0,179.83333333333331,11614.0,184.647,181.78,2.8669999999999902,2.8688641557849865,0.40457749064063037
66.0,182.83333333333331,11794.0,184.724,181.152,3.5720000000000027,3.574358298152787,0.504068799493743
67.0,185.83333333333331,11974.0,182.248,179.18,3.0679999999999836,3.070056248766399,0.43295031964022584
68.0,188.83333333333331,12154.0,184.087,181.206,2.8810000000000002,2.8829597462382055,0.4065653012531203
69.0,191.83333333333331,12334.0,183.839,180.75,3.0889999999999986,3.091132145505605,0.43592251802701765
70.0,194.83333333333331,12514.0,183.539,180.853,2.6859999999999786,2.687880858223555,0.3790545782965165
71.0,197.83333333333331,12694.0,181.238,177.813,3.4250000000000114,3.4274326134756055,0.48334881360752185
72.0,200.83333333333331,12874.0,181.042,178.705,2.336999999999989,2.3386832458957953,0.3298094812610286
73.0,203.83333333333331,13054.0,183.48,180.226,3.2539999999999907,3.256376287239306,0.4592258382873639
74.0,206.83333333333331,13234.0,181.41,177.971,3.438999999999993,3.4415458018304967,0.48533910593908686
75.0,209.83333333333331,13414.0,183.193,179.638,3.555000000000007,3.5576672500937647,0.5017149681607869
76.0,212.83333333333331,13594.0,182.982,179.926,3.0560000000000116,3.058323442796439,0.43129571735174593
77.0,215.83333333333331,13774.0,183.248,179.364,3.883999999999986,3.886991831707372,0.548157499281279
78.0,218.83333333333331,13954.0,181.23,177.592,3.637999999999977,3.6408387469673693,0.5134441103127758
79.0,221.83333333333331,14134.0,181.423,177.85,3.5730000000000075,3.5758237852483203,0.504275467728794
80.0,224.83333333333331,14314.0,183.106,179.327,3.7789999999999964,3.7820244096025357,0.5333546177476393
81.0,227.83333333333331,14494.0,181.41,177.415,3.9950000000000045,3.9982372609136774,0.563845727844758
82.0,230.83333333333331,14674.0,181.723,177.505,4.218000000000018,4.221460178479309,0.5953254225734449
83.0,233.83333333333331,14854.0,183.293,179.088,4.2050000000000125,4.208491598813073,0.5934965470555997
84.0,236.83333333333331,15034.0,181.162,177.429,3.733000000000004,3.7361370373712424,0.5268834162890434
85.0,239.83333333333331,15214.0,181.432,176.911,4.520999999999987,4.524844483674078,0.6381097630755715
86.0,242.83333333333331,15394.0,181.398,177.135,4.263000000000005,4.2666677569094205,0.6017007570772808
87.0,245.83333333333331,15574.0,181.676,177.073,4.60299999999998,4.607006352510622,0.6496965238684115
88.0,248.83333333333331,15754.0,181.571,176.771,4.800000000000011,4.804225859105308,0.6775091245182422
89.0,251.83333333333331,15934.0,183.94,178.778,5.162000000000006,5.166596225016749,0.7286118904081325
90.0,254.83333333333331,16114.0,181.482,176.721,4.760999999999996,4.765286828783587,0.6720178031031887
91.0,257.83333333333337,16294.0,183.661,178.566,5.094999999999999,5.099638560224801,0.719169280884061
92.0,260.83333333333337,16474.0,181.42,176.929,4.4909999999999854,4.495133621174167,0.6339198309134843
93.0,263.83333333333337,16654.0,182.878,178.405,4.472999999999985,4.477161824948622,0.6313853838904093
94.0,266.83333333333337,16834.0,181.099,176.352,4.746999999999986,4.75146427788187,0.6700684975054342
95.0,269.83333333333337,17014.0,183.871,177.981,5.890000000000015,5.895598158704371,0.8314183521253146
96.0,272.83333333333337,17194.0,183.301,178.411,4.889999999999986,4.894696654033219,0.6902676398053427
97.0,275.83333333333337,17374.0,183.299,177.675,5.623999999999995,5.629457926666482,0.7938863041127651
98.0,278.83333333333337,17554.0,181.344,175.966,5.377999999999986,5.383273023359414,0.7591684279760588
99.0,281.83333333333337,17734.0,183.359,178.099,5.260000000000019,5.265209978513859,0.7425187548555352
100.0,284.83333333333337,17914.0,181.509,175.65,5.8589999999999804,5.864861930476724,0.8270838192186156
101.0,287.83333333333337,18094.0,181.566,175.893,5.673000000000002,5.678732624488047,0.8008351983490171
102.0,290.83333333333337,18274.0,183.307,177.504,5.802999999999997,5.808922079747224,0.8191949812653386
103.0,293.83333333333337,18454.0,182.703,177.434,5.2690000000000055,5.274429865900899,0.7438189763719553
104.0,296.83333333333337,18634.0,181.104,175.483,5.621000000000009,5.626848880890893,0.793518367139965
105.0,299.83333333333337,18814.0,181.142,175.387,5.7549999999999955,5.761045923554392,0.8124433143748181
106.0,302.83333333333337,18994.0,181.331,175.053,6.277999999999992,6.284658208226922,0.8862849927178816
107.0,305.83333333333337,19174.0,181.15,174.857,6.293000000000006,6.299737113713066,0.8884114739355056
108.0,308.83333333333337,19354.0,181.402,174.935,6.4669999999999845,6.473988132912511,0.9129849762908284
109.0,311.83333333333337,19534.0,182.629,176.664,5.965000000000003,5.971505394796079,0.8421230622237423
110.0,314.83333333333337,19714.0,182.979,176.532,6.447000000000003,6.454095601865556,0.9101796603691111
111.0,317.83333333333337,19894.0,180.847,174.315,6.532000000000011,6.5392545455279185,0.9221890793801336
112.0,320.83333333333337,20074.0,183.03,176.314,6.716000000000008,6.723526133848232,0.9481757182555447
113.0,323.83333333333337,20254.0,183.246,176.564,6.682000000000016,6.689554927730277,0.9433849771890765
114.0,326.83333333333337,20434.0,181.02,174.613,6.407000000000011,6.414308144851104,0.9045686907854102
115.0,329.83333333333337,20614.0,181.042,174.031,7.010999999999996,7.019067287801399,0.9898539894996887
116.0,332.83333333333337,20794.0,181.365,174.038,7.326999999999998,7.335504251512265,1.034479062619978
117.0,335.83333333333337,20974.0,180.677,173.812,6.864999999999981,6.873036750582279,0.9692602405116509
118.0,338.83333333333337,21154.0,181.031,173.594,7.437000000000012,7.445780839676551,1.0500306617523214
119.0,341.83333333333337,21334.0,182.726,175.575,7.1510000000000105,7.1595147552745875,1.0096603940108797
120.0,344.83333333333337,21514.0,182.622,175.524,7.098000000000013,7.106522712604851,1.002187266500115
121.0,347.83333333333337,21694.0,182.885,175.267,7.617999999999995,7.627223359006868,1.0756183351937947
122.0,350.83333333333337,21874.0,182.434,175.093,7.341000000000008,7.349961485394576,1.036517873483126
123.0,353.83333333333337,22054.0,182.69,174.883,7.806999999999988,7.816608518027181,1.1023261081103026
124.0,356.83333333333337,22234.0,180.296,173.102,7.193999999999988,7.202926093033939,1.0157824162267506
125.0,359.83333333333337,22414.0,180.263,172.566,7.697000000000003,7.706627265787569,1.086816158307036
126.0,362.83333333333337,22594.0,181.362,173.47,7.891999999999996,7.901950187301586,1.114361295741093
127.0,365.83333333333337,22774.0,179.252,171.772,7.480000000000018,7.48950563480048,1.0561968888475792
128.0,368.83333333333337,22954.0,178.992,170.825,8.167000000000002,8.177460453261888,1.153214739471841
129.0,371.83333333333337,23134.0,180.356,172.459,7.896999999999991,7.907193703525153,1.115100755164986
130.0,374.83333333333337,23314.0,180.542,172.458,8.084000000000003,8.094516033941057,1.1415176206090332
131.0,377.83333333333337,23494.0,180.792,172.0,8.792000000000002,8.803525067270883,1.2415046119650708
132.0,380.83333333333337,23674.0,180.535,172.608,7.9269999999999925,7.937470549042037,1.1193705042777262
133.0,383.83333333333337,23854.0,180.144,171.791,8.353000000000009,8.364116881087211,1.1795376969493623
134.0,386.83333333333337,24034.0,177.751,169.746,8.004999999999995,8.015733890100215,1.130407480730801
135.0,389.83333333333337,24214.0,178.039,169.233,8.805999999999983,8.817896128079713,1.2435312703929913
136.0,392.83333333333337,24394.0,177.789,169.453,8.335999999999984,8.34734467262878,1.1771724200864162
137.0,395.83333333333337,24574.0,177.756,168.784,8.972000000000008,8.984300063619756,1.2669981489266995
138.0,398.83333333333337,24754.0,177.645,169.11,8.534999999999997,8.54678643076672,1.2052984106021032
139.0,401.83333333333337,24934.0,177.732,168.828,8.903999999999996,8.91638516569604,1.2574205469605397
140.0,404.83333333333337,25114.0,178.952,170.843,8.109000000000009,8.120360550529824,1.1451623068334467
141.0,407.83333333333337,25294.0,179.621,170.82,8.801000000000016,8.813418162747375,1.2428997716956132
142.0,410.83333333333337,25474.0,179.485,170.506,8.979000000000013,8.991759236914247,1.2680500682403602
143.0,413.83333333333337,25654.0,178.318,168.903,9.41500000000002,9.42847308095698,1.3296370174845593
144.0,416.83333333333337,25834.0,180.269,170.911,9.358000000000004,9.37148522703322,1.3216003863701242
145.0,419.83333333333337,26014.0,178.292,169.371,8.920999999999992,8.933944832735683,1.2598968740508478
146.0,422.83333333333337,26194.0,178.77,169.478,9.292000000000002,9.305576228235022,1.3123056634775672
147.0,425.83333333333337,26374.0,180.824,171.643,9.181000000000012,9.194505994473857,1.2966421416027696
148.0,428.83333333333337,26554.0,181.255,171.889,9.365999999999985,9.379871942705496,1.3227831110294859
149.0,431.83333333333337,26734.0,179.201,169.824,9.376999999999981,9.39098214411053,1.3243499113939776
150.0,434.83333333333337,26914.0,178.963,169.363,9.599999999999994,9.61441080540202,1.355858620839222
151.0,437.83333333333337,27094.0,180.815,171.667,9.147999999999996,9.161823914428732,1.2920331977087514
152.0,440.83333333333337,27274.0,179.45,169.642,9.807999999999993,9.82291949594441,1.3852632626122732
153.0,443.83333333333337,27454.0,179.671,169.657,10.013999999999982,10.02933314686622,1.4143724544000824
154.0,446.83333333333337,27634.0,179.802,169.586,10.21599999999998,10.231744760353763,1.4429172645460002
155.0,449.83333333333337,27814.0,181.394,171.725,9.669000000000011,9.683998570889612,1.3656721365762734
156.0,452.83333333333337,27994.0,181.476,171.349,10.12700000000001,10.142810448943827,1.430375429663533
157.0,455.83333333333337,28174.0,179.525,170.135,9.390000000000015,9.404753878764275,1.3262920507025764
158.0,458.83333333333337,28354.0,179.696,169.476,10.219999999999999,10.236160363325132,1.4435399686800456
159.0,461.83333333333337,28534.0,181.658,171.415,10.242999999999995,10.259299324529136,1.4468031078011747
160.0,464.83333333333337,28714.0,179.65,169.448,10.201999999999998,10.21833626552735,1.4410263506178524
161.0,467.83333333333337,28894.0,179.314,169.123,10.191000000000003,10.207420725136725,1.439487002046286
162.0,470.83333333333337,29074.0,181.782,171.265,10.517000000000024,10.534051347862665,1.4855496214430168
163.0,473.83333333333337,29254.0,179.892,169.267,10.625,10.642332872453407,1.5008198695700765
164.0,476.83333333333337,29434.0,181.647,171.1,10.546999999999997,10.564311271362481,1.4898169841523479
165.0,479.83333333333337,29614.0,181.593,171.22,10.37299999999999,10.39012957801558,1.4652532583768614
166.0,482.83333333333337,29794.0,179.906,169.082,10.824000000000012,10.841982761562669,1.5289752114602204
167.0,485.83333333333337,29974.0,181.434,171.086,10.347999999999985,10.36529559780451,1.461751081609044
168.0,488.83333333333337,30154.0,179.429,168.782,10.646999999999991,10.664901993463952,1.50400264778772
169.0,491.83333333333337,30334.0,181.186,170.973,10.212999999999994,10.230274562894149,1.4427099320385486
170.0,494.83333333333337,30514.0,179.549,168.701,10.848000000000013,10.866457284246493,1.532426696241081
171.0,497.83333333333337,30694.0,181.673,170.612,11.061000000000007,11.079930490956889,1.5625314518516753
172.0,500.83333333333337,30874.0,181.23,170.867,10.363,10.380839697741978,1.4639431662130804
173.0,503.83333333333337,31054.0,181.082,170.789,10.293000000000006,10.310822301846073,1.4540690624582424
174.0,506.83333333333337,31234.0,180.484,170.148,10.336000000000013,10.354000295715812,1.4601581776836845
175.0,509.83333333333337,31414.0,180.783,170.347,10.435999999999979,10.454278989450797,1.474299837962095
176.0,512.8333333333333,31594.0,179.267,168.407,10.859999999999985,10.879130429840043,1.5342139085886657
177.0,515.8333333333333,31774.0,179.307,168.592,10.714999999999975,10.73398234441897,1.5137446061113997
178.0,518.8333333333333,31954.0,180.878,169.873,11.004999999999995,11.024606344469845,1.5547294427142164
179.0,521.8333333333333,32134.0,178.524,167.879,10.64500000000001,10.664071614002262,1.5038855447041835
180.0,524.8333333333333,32314.0,178.52,167.682,10.838000000000022,10.8575259680993,1.531167170073673
181.0,527.8333333333333,32494.0,178.778,167.562,11.21599999999998,11.23631934345846,1.5845859675322689
182.0,530.8333333333333,32674.0,181.006,169.238,11.768,11.789437261991013,1.662588635960129
183.0,533.8333333333333,32854.0,181.009,169.283,11.725999999999999,11.747478226583286,1.6566714226195363
184.0,536.8333333333333,33034.0,180.925,169.272,11.65300000000002,11.674461258302722,1.6463743084318294
185.0,539.8333333333333,33214.0,178.552,167.294,11.257999999999981,11.278846577138216,1.5905833102267108
186.0,542.8333333333333,33394.0,180.326,169.168,11.157999999999987,11.17877319308064,1.5764706034537925
187.0,545.8333333333333,33574.0,178.856,167.051,11.805000000000007,11.827096003324156,1.6678994064399808
188.0,548.8333333333333,33754.0,178.794,167.458,11.336000000000013,11.357331725539115,1.6016515667450837
189.0,551.8333333333333,33934.0,180.549,168.45,12.099000000000018,12.121888733039338,1.7094721322195447
190.0,554.8333333333333,34114.0,178.551,166.818,11.732999999999976,11.755313891484123,1.6577764361269514
191.0,557.8333333333333,34294.0,178.781,166.804,11.977000000000004,11.999897930562529,1.692268552660791
192.0,560.8333333333333,34474.0,180.933,168.514,12.418999999999983,12.442867385357866,1.7547376905215581
193.0,563.8333333333333,34654.0,178.992,166.676,12.316000000000003,12.339792832698063,1.7402017482114565
