"Frame","Time (aligned)","Time [ s]","Intensity Ch3-T2","background","Intensity (bg-subst)","bleach-Corrected","Normalized"
1.0,-13.733333333333334,0.0,194.577,182.239,12.337999999999994,12.338123380616896,1.012719025554622
2.0,-10.733333333333334,180.0,194.6,182.586,12.013999999999982,12.014240282402797,0.9861345470647825
3.0,-7.733333333333333,360.0,192.764,180.717,12.046999999999997,12.047361415421202,0.98885314538974
4.0,-4.733333333333333,540.0,194.44,182.049,12.390999999999991,12.391495649912923,1.017099846761032
5.0,-0.3333333333333333,804.0,194.206,182.082,12.123999999999995,12.124606215155248,0.9951934352298237
6.0,2.55,977.0,186.051,174.219,11.831999999999994,11.83270994129802,0.9712344504714029
7.0,5.833333333333334,1174.0,182.095,170.889,11.205999999999989,11.20678444745533,0.919858188730497
8.0,8.833333333333332,1354.0,178.89,167.623,11.266999999999996,11.267901396055358,0.924874696891562
9.0,11.833333333333332,1534.0,178.643,167.441,11.201999999999998,11.203008225369459,0.9195482346286366
10.0,14.833333333333332,1714.0,180.77,169.35,11.420000000000016,11.42114205710192,0.9374527631130606
11.0,17.833333333333336,1894.0,179.776,167.914,11.862000000000023,11.863304891767754,0.9737456985332659
12.0,20.833333333333336,2074.0,182.761,171.143,11.617999999999995,11.619394243652941,0.953725396720651
13.0,23.833333333333336,2254.0,182.735,171.4,11.335000000000008,11.33647364578491,0.9305031397093163
14.0,26.833333333333336,2434.0,180.94,170.174,10.765999999999991,10.767507345511715,0.8838021156223552
15.0,29.833333333333336,2614.0,183.127,171.94,11.187000000000012,11.188678175860055,0.9183720173606109
16.0,32.83333333333333,2794.0,180.796,169.746,11.049999999999983,11.051768141447527,0.9071343767274554
17.0,35.83333333333333,2974.0,182.759,172.036,10.722999999999985,10.724823064956116,0.8802985696067045
18.0,38.83333333333333,3154.0,182.96,172.139,10.820999999999998,10.822947955310717,0.8883527071993533
19.0,41.83333333333333,3334.0,182.576,171.775,10.800999999999988,10.803052384970385,0.8867196693388658
20.0,44.83333333333333,3514.0,182.329,171.474,10.855000000000018,10.857171217114493,0.8911617687783345
21.0,47.83333333333333,3694.0,182.376,171.717,10.658999999999992,10.661238625047394,0.8750795285873905
22.0,50.83333333333333,3874.0,180.263,169.356,10.90700000000001,10.909399803968768,0.8954487159868744
23.0,53.83333333333333,4054.0,182.127,171.193,10.933999999999997,10.936515109226471,0.8976743531175047
24.0,56.83333333333333,4234.0,179.706,169.151,10.554999999999978,10.5575335040083,0.8665673630105145
25.0,59.83333333333333,4414.0,181.848,171.308,10.54000000000002,10.54263532940247,0.8653445137648131
26.0,62.83333333333333,4594.0,181.232,171.411,9.820999999999998,9.823553791978568,0.8063219597337605
27.0,65.83333333333334,4774.0,179.657,169.133,10.524000000000001,10.526841863634326,0.8640481785954005
28.0,68.83333333333334,4954.0,181.053,171.107,9.945999999999998,9.94878526991959,0.8166010189064412
29.0,71.83333333333334,5134.0,179.325,169.322,10.002999999999986,10.005901290666799,0.8212891290095985
30.0,74.83333333333334,5314.0,179.116,169.299,9.817000000000007,9.819945541809187,0.8060257928465633
31.0,77.83333333333334,5494.0,180.71,170.652,10.058000000000021,10.061118463336864,0.8258213807609597
32.0,80.83333333333334,5674.0,178.982,168.883,10.09899999999999,10.102232197123948,0.8291960155521126
33.0,83.83333333333334,5854.0,178.471,168.204,10.266999999999996,10.270388669099646,0.8429983786171038
34.0,86.83333333333334,6034.0,178.249,169.075,9.174000000000007,9.177119690317307,0.7532623417250665
35.0,89.83333333333334,6214.0,178.172,168.675,9.496999999999986,9.500324531759105,0.7797911485769808
36.0,92.83333333333334,6394.0,178.204,168.516,9.688000000000017,9.691488307857757,0.7954819620888723
37.0,95.83333333333334,6574.0,180.188,170.264,9.923999999999978,9.927672559381566,0.8148680776005962
38.0,98.83333333333334,6754.0,179.888,170.435,9.453000000000003,9.45659282259306,0.7762016291236374
39.0,101.83333333333334,6934.0,177.558,167.907,9.650999999999982,9.654764624053957,0.7924676646848614
40.0,104.83333333333334,7114.0,179.551,169.751,9.799999999999983,9.803920784104527,0.8047104731251778
41.0,107.83333333333334,7294.0,179.575,170.239,9.335999999999984,9.339828544798037,0.7666175617593951
42.0,110.83333333333334,7474.0,176.908,168.018,8.889999999999986,8.893734584207772,0.7300019576567081
43.0,113.83333333333334,7654.0,177.265,167.676,9.588999999999999,9.593124156630129,0.7874081858501579
44.0,116.83333333333334,7834.0,178.696,169.369,9.326999999999998,9.331104782986031,0.7659015112475884
45.0,119.83333333333334,8014.0,176.79,167.495,9.294999999999987,9.299183691259922,0.7632814128817145
46.0,122.83333333333334,8194.0,178.255,169.215,9.039999999999992,9.044159356578662,0.7423488943986477
47.0,125.83333333333334,8374.0,178.042,169.136,8.906000000000006,8.910186803821832,0.7313523636545874
48.0,128.83333333333331,8554.0,176.237,167.076,9.161000000000001,9.165398335516077,0.7523002473573662
49.0,131.83333333333331,8734.0,175.685,167.266,8.419000000000011,8.423126320866062,0.6913742079441306
50.0,134.83333333333331,8914.0,177.792,168.74,9.051999999999992,9.056527131688599,0.7433640472522244
51.0,137.83333333333331,9094.0,175.907,167.18,8.727000000000004,8.73145190513932,0.7166817183025788
52.0,140.83333333333331,9274.0,175.709,166.906,8.802999999999997,8.807578750371919,0.7229302459063488
53.0,143.83333333333331,9454.0,177.424,168.701,8.723000000000013,8.727624415361834,0.7163675561242474
54.0,146.83333333333331,9634.0,177.401,168.708,8.693000000000012,8.697695487667582,0.7139109755280415
55.0,149.83333333333331,9814.0,177.245,168.562,8.682999999999993,8.687776963544549,0.7130968583584403
56.0,152.83333333333331,9994.0,176.926,168.293,8.632999999999981,8.637835833907099,0.7089976667244038
57.0,155.83333333333331,10174.0,176.49,168.105,8.38500000000002,8.389780812402114,0.6886371927760634
58.0,158.83333333333331,10354.0,174.091,166.039,8.052000000000021,8.056671514608299,0.6612954234438727
59.0,161.83333333333331,10534.0,176.388,168.543,7.844999999999999,7.849629915690821,0.6443013506957936
60.0,164.83333333333331,10714.0,176.253,168.058,8.194999999999993,8.199918475395057,0.6730532020027683
61.0,167.83333333333331,10894.0,174.195,165.814,8.381,8.386113969602153,0.6883362165779269
62.0,170.83333333333331,11074.0,175.676,167.341,8.33499999999998,8.340169302318108,0.6845650564714858
63.0,173.83333333333331,11254.0,173.912,165.543,8.369,8.374274131176879,0.6873643970181059
64.0,176.83333333333331,11434.0,173.606,165.122,8.48399999999998,8.48943149789391,0.6968165683580619
65.0,179.83333333333331,11614.0,173.569,165.231,8.337999999999994,8.343421461784192,0.684831995264675
66.0,182.83333333333331,11794.0,175.539,167.188,8.350999999999999,8.356513479248012,0.6859065942745481
67.0,185.83333333333331,11974.0,175.581,167.522,8.058999999999997,8.06440133924659,0.6619298911205127
68.0,188.83333333333331,12154.0,173.015,164.837,8.177999999999997,8.18356293118224,0.6717107311677271
69.0,191.83333333333331,12334.0,172.371,164.55,7.820999999999998,7.826398352217333,0.642394492934917
70.0,194.83333333333331,12514.0,172.466,164.811,7.655000000000001,7.660360375912688,0.6287660170005247
71.0,197.83333333333331,12694.0,174.397,166.659,7.7379999999999995,7.743495930824568,0.6355898228226944
72.0,200.83333333333331,12874.0,174.287,165.924,8.363,8.369023528209938,0.6869334250334516
73.0,203.83333333333331,13054.0,171.681,164.408,7.273000000000025,7.278311228362514,0.597407241562372
74.0,206.83333333333331,13234.0,171.614,163.877,7.736999999999995,7.7427274989132275,0.6355267495665394
75.0,209.83333333333331,13414.0,171.972,164.375,7.597000000000008,7.602699887190522,0.6240332167074549
76.0,212.83333333333331,13594.0,171.336,164.201,7.135000000000019,7.140424661110134,0.5860894466500375
77.0,215.83333333333331,13774.0,171.55,164.228,7.322000000000003,7.327640111164133,0.6014561796854122
78.0,218.83333333333331,13954.0,171.255,164.03,7.224999999999994,7.230637698416546,0.5934941755877298
79.0,221.83333333333331,14134.0,171.331,163.918,7.4129999999999825,7.4188585838359025,0.6089434352353009
80.0,224.83333333333331,14314.0,171.043,163.68,7.3629999999999995,7.368892756788434,0.6048422164261231
81.0,227.83333333333331,14494.0,170.432,163.534,6.897999999999996,6.903589643499999,0.5666499159489468
82.0,230.83333333333331,14674.0,170.911,163.698,7.212999999999994,7.218917085673566,0.5925321421285231
83.0,233.83333333333331,14854.0,172.754,165.868,6.885999999999996,6.891717752539052,0.5656754655017784
84.0,236.83333333333331,15034.0,172.52,166.025,6.4950000000000045,6.500458092077742,0.5335606867904797
85.0,239.83333333333331,15214.0,172.49,165.762,6.728000000000009,6.733721231178794,0.5527070360075208
86.0,242.83333333333331,15394.0,170.362,163.549,6.812999999999988,6.818861700169785,0.5596954061292913
87.0,245.83333333333331,15574.0,172.413,165.344,7.069000000000017,7.075152706039062,0.5807318935849201
88.0,248.83333333333331,15754.0,172.044,165.137,6.907000000000011,6.913080835175071,0.5674289574683103
89.0,251.83333333333331,15934.0,169.633,163.032,6.600999999999999,6.606877505101806,0.542295642742301
90.0,254.83333333333331,16114.0,171.998,164.687,7.310999999999979,7.317582861843465,0.6006306758857187
91.0,257.83333333333337,16294.0,170.224,163.308,6.915999999999997,6.922296424438611,0.5681853774108718
92.0,260.83333333333337,16474.0,171.448,165.15,6.298000000000002,6.303796826131153,0.5174186367015132
93.0,263.83333333333337,16654.0,171.128,165.012,6.1159999999999854,6.121690525684284,0.5024712650918536
94.0,266.83333333333337,16834.0,171.61,164.741,6.869,6.875459895675303,0.5643410128907331
95.0,269.83333333333337,17014.0,169.425,162.973,6.451999999999998,6.458132312387181,0.5300865666960574
96.0,272.83333333333337,17194.0,171.144,164.745,6.399000000000001,6.405145989602999,0.5257374241625973
97.0,275.83333333333337,17374.0,171.168,164.857,6.311000000000007,6.31712463997017,0.518512589989825
98.0,278.83333333333337,17554.0,169.03,162.773,6.257000000000005,6.263134865593152,0.5140810836731591
99.0,281.83333333333337,17734.0,171.375,164.87,6.5049999999999955,6.511443138827472,0.534462344643694
100.0,284.83333333333337,17914.0,170.593,164.012,6.580999999999989,6.587584291597096,0.5407120466168966
101.0,287.83333333333337,18094.0,168.787,162.548,6.239000000000004,6.245304573273566,0.512617564813264
102.0,290.83333333333337,18274.0,168.469,161.775,6.693999999999988,6.700831363403045,0.5500074200434915
103.0,293.83333333333337,18454.0,169.958,163.988,5.969999999999999,5.976152267874042,0.49052541578530073
104.0,296.83333333333337,18634.0,168.521,161.888,6.632999999999981,6.639901908370241,0.5450063014434512
105.0,299.83333333333337,18814.0,168.338,161.573,6.764999999999986,6.772106980511801,0.5558577565393625
106.0,302.83333333333337,18994.0,168.153,162.371,5.781999999999982,5.788132169475629,0.47509263683174774
107.0,305.83333333333337,19174.0,168.316,162.193,6.1229999999999905,6.129555116361831,0.5031167944289863
108.0,308.83333333333337,19354.0,169.946,163.849,6.097000000000008,6.103588317050831,0.5009854272118032
109.0,311.83333333333337,19534.0,167.699,161.64,6.059000000000026,6.0656079106570955,0.4978679774208845
110.0,314.83333333333337,19714.0,167.607,161.706,5.9010000000000105,5.907494671414409,0.48488996766741643
111.0,317.83333333333337,19894.0,167.348,161.403,5.945000000000022,5.951602613772742,0.4885103685198285
112.0,320.83333333333337,20074.0,167.314,161.464,5.849999999999994,5.856555670490183,0.4807088702843451
113.0,323.83333333333337,20254.0,169.575,163.59,5.984999999999985,5.991766872562931,0.49180706995240003
114.0,326.83333333333337,20434.0,169.476,163.418,6.057999999999993,6.064910057984685,0.49781069734217376
115.0,329.83333333333337,20614.0,167.02,161.45,5.570000000000022,5.576409184574807,0.4577143136993075
116.0,332.83333333333337,20794.0,169.179,163.626,5.552999999999997,5.559445217503425,0.4563219032271396
117.0,335.83333333333337,20974.0,168.696,163.155,5.540999999999997,5.547486764016969,0.45534034768677517
118.0,338.83333333333337,21154.0,168.679,162.991,5.687999999999988,5.694715801543642,0.46742497699528046
119.0,341.83333333333337,21334.0,166.324,160.836,5.4879999999999995,5.494534607320217,0.4509940095219943
120.0,344.83333333333337,21514.0,168.347,162.691,5.656000000000006,5.662791273949423,0.46480459661172063
121.0,347.83333333333337,21694.0,168.471,162.841,5.6299999999999955,5.636816423104313,0.46267256852079464
122.0,350.83333333333337,21874.0,168.129,162.658,5.471000000000004,5.477678693174459,0.4496104680852681
123.0,353.83333333333337,22054.0,167.941,162.267,5.674000000000007,5.680983313857608,0.46629780788545544
124.0,356.83333333333337,22234.0,168.015,162.476,5.538999999999987,5.545872620143864,0.45520785799123176
125.0,359.83333333333337,22414.0,167.12,161.992,5.128000000000014,5.134414007919807,0.42143513972824004
126.0,362.83333333333337,22594.0,166.876,161.531,5.344999999999999,5.351738944643562,0.4392732737262644
127.0,365.83333333333337,22774.0,164.79,159.053,5.736999999999995,5.744290618562862,0.47149410151567756
128.0,368.83333333333337,22954.0,166.532,161.074,5.457999999999998,5.464990713101918,0.4485690326563189
129.0,371.83333333333337,23134.0,165.696,160.465,5.2309999999999945,5.2377523443257035,0.42991719944826395
130.0,374.83333333333337,23314.0,162.993,158.484,4.508999999999986,4.514865511756568,0.37058230498483397
131.0,377.83333333333337,23494.0,163.16,158.23,4.930000000000007,4.936462532034294,0.40518718859486014
132.0,380.83333333333337,23674.0,163.191,158.472,4.718999999999994,4.725233193002316,0.38784938414973097
133.0,383.83333333333337,23854.0,165.188,159.911,5.276999999999987,5.284023079312469,0.43371512334657
134.0,386.83333333333337,24034.0,164.832,159.644,5.187999999999988,5.194956579867563,0.42640450278095715
135.0,389.83333333333337,24214.0,162.176,157.016,5.159999999999997,5.1669707041666335,0.42410740881497666
136.0,392.83333333333337,24394.0,161.939,156.954,4.984999999999985,4.9917842122186205,0.40972801837261474
137.0,395.83333333333337,24574.0,163.966,158.82,5.146000000000015,5.153054851469834,0.42296518901800134
138.0,398.83333333333337,24754.0,161.701,156.941,4.759999999999991,4.7665733345576475,0.39124260259800625
139.0,401.83333333333337,24934.0,161.906,156.96,4.945999999999998,4.952879720297912,0.4065347192028615
140.0,404.83333333333337,25114.0,161.567,156.324,5.242999999999995,5.250345340538633,0.4309508385569153
141.0,407.83333333333337,25294.0,163.326,158.376,4.949999999999989,4.956984422860962,0.40687163513826
142.0,410.83333333333337,25474.0,163.427,158.838,4.588999999999999,4.595521008820515,0.37720254648124696
143.0,413.83333333333337,25654.0,163.571,158.729,4.8419999999999845,4.848929013063564,0.3980023957944681
144.0,416.83333333333337,25834.0,162.094,156.85,5.244,5.251556799589889,0.43105027569107585
145.0,419.83333333333337,26014.0,161.998,156.786,5.211999999999989,5.219562881764189,0.4284241997243676
146.0,422.83333333333337,26194.0,162.286,157.189,5.097000000000008,5.104447055027333,0.4189754380057088
147.0,425.83333333333337,26374.0,164.025,159.216,4.8089999999999975,4.816074428430967,0.3953056758875821
148.0,428.83333333333337,26554.0,164.329,159.432,4.89700000000002,4.9042529258412415,0.4025434088245451
149.0,431.83333333333337,26734.0,164.221,159.175,5.045999999999992,5.053524144095314,0.41479566129683776
150.0,434.83333333333337,26914.0,163.603,158.984,4.619,4.625933698974162,0.37969883452982345
151.0,437.83333333333337,27094.0,161.676,157.292,4.383999999999986,4.390624840495786,0.360384571694929
152.0,440.83333333333337,27274.0,164.008,159.209,4.799000000000007,4.8063000266147355,0.39450338834535637
153.0,443.83333333333337,27454.0,164.187,159.539,4.648000000000025,4.6551168830272145,0.3820942041338605
154.0,446.83333333333337,27634.0,163.648,159.593,4.055000000000007,4.061249510888279,0.3333492882444592
155.0,449.83333333333337,27814.0,162.439,157.634,4.805000000000007,4.812453524989616,0.39500847041381343
156.0,452.83333333333337,27994.0,161.76,157.358,4.401999999999987,4.408872479139977,0.36188234653931495
157.0,455.83333333333337,28174.0,161.576,157.099,4.477000000000004,4.484034410567372,0.3680516735597868
158.0,458.83333333333337,28354.0,162.159,157.026,5.132999999999981,5.141116550386274,0.42198528759643555
159.0,461.83333333333337,28534.0,163.828,159.211,4.61699999999999,4.6243468692132135,0.3795685867895753
160.0,464.83333333333337,28714.0,163.852,158.819,5.0330000000000155,5.041059245677252,0.4137725365160134
161.0,467.83333333333337,28894.0,163.285,159.403,3.882000000000005,3.888255053967305,0.319149821077954
162.0,470.83333333333337,29074.0,161.639,156.703,4.936000000000007,4.944002800518215,0.4058060974123431
163.0,473.83333333333337,29254.0,161.255,156.608,4.646999999999991,4.654580786662672,0.3820502010897059
164.0,476.83333333333337,29434.0,163.345,159.054,4.290999999999997,4.29804301369265,0.3527854113905805
165.0,479.83333333333337,29614.0,161.464,156.973,4.4909999999999854,4.498416266737478,0.3692321431431221
166.0,482.83333333333337,29794.0,163.65,158.692,4.957999999999998,4.966237114913861,0.4076311004953896
167.0,485.83333333333337,29974.0,161.396,156.943,4.4529999999999745,4.460442722943882,0.36611525663768146
168.0,488.83333333333337,30154.0,161.122,156.527,4.595000000000027,4.602726088096853,0.3777939428094147
169.0,491.83333333333337,30334.0,161.191,157.234,3.9569999999999936,3.9636929839784694,0.3253418021932331
170.0,494.83333333333337,30514.0,161.322,156.237,5.085000000000008,5.093651851990546,0.4180893626145959
171.0,497.83333333333337,30694.0,162.84,158.483,4.356999999999999,4.364456843784389,0.35823669009958725
172.0,500.83333333333337,30874.0,160.808,156.731,4.076999999999998,4.084018474157486,0.33521817556091327
173.0,503.83333333333337,31054.0,162.807,158.456,4.350999999999999,4.358533744810281,0.35775051932334545
174.0,506.83333333333337,31234.0,160.71,156.718,3.9920000000000186,3.998952126596136,0.3282358893612826
175.0,509.83333333333337,31414.0,160.744,156.659,4.085000000000008,4.092155008806696,0.3358860261883664
176.0,512.8333333333333,31594.0,163.256,158.725,4.531000000000006,4.538981581731617,0.3725617634593461
177.0,515.8333333333333,31774.0,162.536,158.669,3.8669999999999902,3.873850651037625,0.31796750084588704
178.0,518.8333333333333,31954.0,160.796,156.209,4.586999999999989,4.595172131038899,0.3771739104272753
179.0,521.8333333333333,32134.0,162.4,158.331,4.069000000000017,4.076290032632723,0.3345838214108883
180.0,524.8333333333333,32314.0,162.517,158.477,4.039999999999992,4.04727854872864,0.3322025450366065
181.0,527.8333333333333,32494.0,160.619,156.426,4.193000000000012,4.2005962024894385,0.34478693085664797
182.0,530.8333333333333,32674.0,160.654,156.374,4.280000000000001,4.287796692838337,0.3519443885096291
183.0,533.8333333333333,32854.0,160.012,156.049,3.962999999999994,3.970258929895062,0.32588073815175517
184.0,536.8333333333333,33034.0,162.25,158.173,4.076999999999998,4.084508585780494,0.33525840415564795
185.0,539.8333333333333,33214.0,161.96,158.184,3.7760000000000105,3.7829920656665568,0.31050978501652404
186.0,542.8333333333333,33394.0,159.951,155.981,3.969999999999999,3.9773910715657093,0.32646614772661503
187.0,545.8333333333333,33574.0,161.663,157.936,3.727000000000004,3.7339760105369884,0.30648652393734477
188.0,548.8333333333333,33754.0,161.578,157.299,4.278999999999996,4.2870520865897825,0.3518832708751886
189.0,551.8333333333333,33934.0,161.599,157.906,3.6929999999999836,3.699986370040004,0.3036966381061547
190.0,554.8333333333333,34114.0,159.405,155.668,3.7369999999999948,3.7441070495590387,0.3073180844307651
191.0,557.8333333333333,34294.0,159.51,155.69,3.819999999999993,3.8273031723093234,0.3141468616898703
192.0,560.8333333333333,34474.0,159.252,155.117,4.135000000000019,4.1429468265122065,0.34005504270295894
193.0,563.8333333333333,34654.0,160.84,157.191,3.649000000000001,3.656049370454306,0.30009026831768876
