"Frame","Time (aligned)","Time [ s]","Intensity Ch3-T2","background","Intensity (bg-subst)","bleach-Corrected","Normalized"
1.0,-12.3333333333333,0.0,275.296,266.536,8.75999999999999,8.75999999999999,1.01226555654465
2.0,-9.33333333333333,180.0,271.837,262.824,9.01299999999998,9.04293329394523,1.04496003465657
3.0,-6.33333333333333,360.0,269.077,260.409,8.66800000000001,8.72524908325513,1.00824989945798
4.0,-3.33333333333333,540.0,265.098,256.978,8.12,8.19998849507091,0.947553186943225
5.0,-0.333333333333333,720.0,265.654,257.223,8.43099999999998,8.54110734905899,0.986971322397576
6.0,3.21666666666667,933.0,281.046,271.948,9.09800000000001,9.2456783394152,1.06838832532887
7.0,6.21666666666667,1113.0,278.943,269.66,9.28299999999996,9.46278813385056,1.09347654072789
8.0,9.21666666666667,1293.0,276.256,267.253,9.00299999999999,9.20526673496975,1.0637185450475
9.0,12.2166666666667,1473.0,274.42,265.776,8.64400000000001,8.86467804242273,1.02436167262582
10.0,15.2166666666667,1653.0,273.309,264.56,8.74900000000002,8.99884359565578,1.03986523066378
11.0,18.2166666666667,1833.0,270.588,261.199,9.38900000000001,9.68520850502228,1.11917842209901
12.0,21.2166666666667,2013.0,269.353,260.296,9.05700000000002,9.36951031305317,1.08269778214538
13.0,24.2166666666667,2193.0,269.783,262.043,7.74000000000001,8.02967905895886,0.927873007019621
14.0,27.2166666666667,2373.0,268.779,259.925,8.85399999999999,9.21093084717585,1.06437306396241
15.0,30.2166666666667,2553.0,267.64,259.021,8.61899999999997,8.99104152675251,1.03896365924591
16.0,33.2166666666667,2733.0,268.609,259.598,9.01099999999997,9.42535754434781,1.08915123290657
17.0,36.2166666666667,2913.0,268.101,259.651,8.44999999999999,8.8620895898576,1.02406256287965
18.0,39.2166666666667,3093.0,267.688,259.261,8.42699999999996,8.86115069651953,1.02395406865734
19.0,42.2166666666667,3273.0,267.55,258.935,8.61500000000001,9.08225066140327,1.04950336991363
20.0,45.2166666666667,3453.0,265.136,256.529,8.60700000000003,9.09692684573868,1.05119928268808
21.0,48.2166666666667,3633.0,264.525,256.146,8.37899999999996,8.87817414716004,1.02592122079626
22.0,51.2166666666667,3813.0,263.415,254.525,8.89000000000002,9.44291148372129,1.09117968589851
23.0,54.2166666666667,3993.0,264.579,255.918,8.661,9.2220876876746,1.06566229745062
24.0,57.2166666666667,4173.0,264.251,255.251,8.99999999999997,9.60606171937543,1.11003258134313
25.0,60.2166666666667,4353.0,262.67,254.399,8.27100000000002,8.84886114606931,1.02253394438495
26.0,63.2166666666667,4533.0,262.381,253.455,8.92599999999996,9.57189257243264,1.10608415091542
27.0,66.2166666666667,4713.0,259.917,250.75,9.16699999999997,9.85292209611636,1.13855863803839
28.0,69.2166666666667,4893.0,260.469,252.105,8.364,9.01019659635144,1.04117713152767
29.0,72.2166666666667,5073.0,260.237,250.83,9.40700000000001,10.1563949529917,1.17362657415267
30.0,75.2166666666667,5253.0,259.624,250.678,8.94600000000003,9.67991443914611,1.11856666404644
31.0,78.2166666666667,5433.0,257.263,248.526,8.73699999999997,9.47426143132001,1.09480234253706
32.0,81.2166666666667,5613.0,256.462,247.591,8.87099999999998,9.64012017199183,1.11396822044048
33.0,84.2166666666667,5793.0,256.53,247.032,9.49799999999996,10.3432143870256,1.1952145739661
34.0,87.2166666666667,5973.0,256.865,247.832,9.03300000000002,9.85724909927274,1.13905864674367
35.0,90.2166666666667,6153.0,254.671,245.48,9.191,10.0501820020555,1.16135309106001
36.0,93.2166666666667,6333.0,253.587,244.556,9.03099999999998,9.89513514451336,1.14343658494809
37.0,96.2166666666667,6513.0,254.723,245.586,9.137,10.0311733241475,1.15915653513287
38.0,99.2166666666667,6693.0,254.039,244.976,9.06299999999999,9.96942268426025,1.15202091346022
39.0,102.216666666667,6873.0,251.86,242.587,9.27300000000002,10.2201226793901,1.18099065890495
40.0,105.216666666667,7053.0,253.082,243.939,9.143,10.0960266078479,1.16665068414186
41.0,108.216666666667,7233.0,252.293,243.026,9.267,10.2521544699479,1.18469210619903
42.0,111.216666666667,7413.0,250.167,240.538,9.62899999999999,10.6723451792629,1.233247423804
43.0,114.216666666667,7593.0,248.98,240.087,8.893,9.8745734676709,1.14106057156311
44.0,117.216666666667,7773.0,249.62,240.106,9.51400000000001,10.5831132249341,1.22293618705627
45.0,120.216666666667,7953.0,249.338,239.948,9.38999999999999,10.4636976375058,1.20913706764209
46.0,123.216666666667,8133.0,248.416,238.948,9.46799999999999,10.5690600918095,1.22131227123166
47.0,126.216666666667,8313.0,245.913,236.573,9.34,10.4441460823931,1.20687777930676
48.0,129.216666666667,8493.0,247.419,238.089,9.33000000000001,10.4506966498218,1.20763473293506
49.0,132.216666666667,8673.0,245.18,235.965,9.215,10.3391834835711,1.19474878118885
50.0,135.216666666667,8853.0,247.028,237.714,9.31399999999999,10.4675340685375,1.20958038807513
51.0,138.216666666667,9033.0,246.877,237.199,9.678,10.8943450328772,1.25890071208845
52.0,141.216666666667,9213.0,247.25,238.4,8.84999999999999,9.97829678245113,1.15304636368214
53.0,144.216666666667,9393.0,246.24,237.852,8.38800000000001,9.47239177520753,1.09458629362322
54.0,147.216666666667,9573.0,246.73,237.446,9.28399999999999,10.5006227206557,1.21340396146004
55.0,150.216666666667,9753.0,244.562,235.618,8.94400000000002,10.1316732733856,1.17076984986441
56.0,153.216666666667,9933.0,246.391,237.436,8.95499999999998,10.1595709252331,1.17399357498697
57.0,156.216666666667,10113.0,244.659,235.414,9.245,10.5043254015835,1.21383182634247
58.0,159.216666666667,10293.0,245.583,236.655,8.928,10.1591680864806,1.17394702478218
59.0,162.216666666667,10473.0,245.147,236.111,9.036,10.2970847952445,1.18988404920612
60.0,165.216666666667,10653.0,243.015,233.947,9.06799999999998,10.3484479497648,1.19581934055273
61.0,168.216666666667,10833.0,242.907,233.516,9.39100000000002,10.7323017708294,1.24017573345362
62.0,171.216666666667,11013.0,241.874,233.193,8.68099999999998,9.93481875884296,1.14802224201945
63.0,174.216666666667,11193.0,242.43,233.383,9.047,10.3680220693024,1.19808123632986
64.0,177.216666666667,11373.0,243.716,234.802,8.91400000000002,10.2295656946387,1.18208185058144
65.0,180.216666666667,11553.0,242.217,232.9,9.31700000000001,10.7064663433549,1.23719030955282
66.0,183.216666666667,11733.0,243.339,233.978,9.36099999999999,10.7713512350369,1.24468811103567
67.0,186.216666666667,11913.0,242.846,233.294,9.55199999999999,11.005573009762,1.27175370865519
68.0,189.216666666667,12093.0,242.379,233.015,9.364,10.8029609500942,1.24834078521429
69.0,192.216666666667,12273.0,242.099,232.907,9.19199999999998,10.6181108561884,1.22698035334387
70.0,195.216666666667,12453.0,242.116,232.448,9.66800000000001,11.182080892725,1.29215015276273
71.0,198.216666666667,12633.0,241.619,232.048,9.571,11.0837083202117,1.28078266796091
72.0,201.216666666667,12813.0,241.244,231.852,9.392,10.8898224621447,1.25837810448805
73.0,204.216666666667,12993.0,238.883,229.878,9.00500000000002,10.4538113153168,1.20799464944199
74.0,207.216666666667,13173.0,238.648,229.335,9.31299999999999,10.8243585066842,1.25081338904195
75.0,210.216666666667,13353.0,239.892,230.429,9.46299999999999,11.0117552007708,1.27246809438832
76.0,213.216666666667,13533.0,239.117,230.134,8.983,10.465449466542,1.2093395009976
77.0,216.216666666667,13713.0,238.089,228.345,9.744,11.3651791484916,1.31330815022574
78.0,219.216666666667,13893.0,239.575,229.392,10.183,11.8908017847055,1.37404669935582
79.0,222.216666666667,14073.0,236.536,227.27,9.26599999999999,10.832234352778,1.25172348581471
80.0,225.216666666667,14253.0,238.605,228.826,9.779,11.4447057655345,1.32249788256147
81.0,228.216666666667,14433.0,236.063,226.992,9.071,10.6278146603625,1.22810168059648
82.0,231.216666666667,14613.0,237.807,228.193,9.61399999999998,11.2762795148865,1.30303531494173
83.0,234.216666666667,14793.0,237.771,228.194,9.577,11.2449752796234,1.29941794061174
84.0,237.216666666667,14973.0,235.119,225.836,9.28299999999999,10.911367054587,1.26086769910667
85.0,240.216666666667,15153.0,234.69,225.163,9.52699999999999,11.2099421674555,1.29536967431194
86.0,243.216666666667,15333.0,235.583,226.541,9.042,10.6503233549771,1.23070268245506
87.0,246.216666666667,15513.0,235.749,226.045,9.70400000000001,11.4418157914032,1.32216393036142
88.0,249.216666666667,15693.0,235.454,225.916,9.53800000000001,11.2575073173839,1.30086608560926
89.0,252.216666666667,15873.0,233.689,223.861,9.828,11.6114324596483,1.34176405719709
90.0,255.216666666667,16053.0,234.857,225.196,9.661,11.4254558241025,1.32027344732436
91.0,258.216666666667,16233.0,234.515,225.053,9.46199999999999,11.2010917854368,1.29434696462247
92.0,261.216666666667,16413.0,234.186,224.732,9.45400000000001,11.2024809930338,1.29450749510207
93.0,264.216666666667,16593.0,232.061,222.796,9.26500000000002,10.9890609050056,1.26984564530919
94.0,267.216666666667,16773.0,233.439,223.8,9.63899999999998,11.4435058230164,1.32235922268923
95.0,270.216666666667,16953.0,232.801,223.558,9.243,10.983671324087,1.26922284997494
96.0,273.216666666667,17133.0,232.591,223.491,9.09999999999999,10.8237814410368,1.2507467059736
97.0,276.216666666667,17313.0,230.477,221.097,9.38,11.1670683204176,1.29041536853192
98.0,279.216666666667,17493.0,230.292,221.16,9.13200000000001,10.8816987029576,1.25743936001147
99.0,282.216666666667,17673.0,231.831,222.239,9.59199999999998,11.4401112521128,1.32196696159277
100.0,285.216666666667,17853.0,230.025,220.309,9.71600000000001,11.5983115187609,1.3402478612462
101.0,288.216666666667,18033.0,229.934,220.371,9.56299999999999,11.4257201171341,1.32030398781896
102.0,291.216666666667,18213.0,230.179,220.296,9.88300000000001,11.8183387762582,1.36567320534043
103.0,294.216666666667,18393.0,231.885,221.928,9.95699999999999,11.9170972982099,1.37708528869511
104.0,297.216666666667,18573.0,231.605,222.015,9.59,11.4876480053152,1.32746009149422
105.0,300.216666666667,18753.0,231.48,221.728,9.75199999999998,11.6915746365399,1.35102492081511
106.0,303.216666666667,18933.0,230.797,221.49,9.30699999999999,11.1674023794339,1.29045397086481
107.0,306.216666666667,19113.0,229.221,219.56,9.661,11.601765250559,1.34064695870519
108.0,309.216666666667,19293.0,229.173,219.534,9.63900000000001,11.5848384846431,1.33869097901108
109.0,312.216666666667,19473.0,229.165,219.449,9.71599999999998,11.6868657882959,1.35048078783698
110.0,315.216666666667,19653.0,229.054,219.045,10.009,12.0489828960495,1.39232538550987
111.0,318.216666666667,19833.0,229.079,219.221,9.858,11.8766600167501,1.37241254129533
112.0,321.216666666667,20013.0,230.701,221.121,9.57999999999998,11.5508397245483,1.33476223770866
113.0,324.216666666667,20193.0,228.811,219.506,9.30500000000001,11.2280348335309,1.29746038009895
114.0,327.216666666667,20373.0,230.564,221.15,9.41399999999999,11.3683579616155,1.31367547933944
115.0,330.216666666667,20553.0,228.261,218.968,9.29300000000001,11.2308483055889,1.29778549206911
116.0,333.216666666667,20733.0,227.76,218.335,9.42499999999998,11.3990333663318,1.31722018888594
117.0,336.216666666667,20913.0,229.654,219.331,10.323,12.4945222786754,1.44380987992954
118.0,339.216666666667,21093.0,227.676,218.197,9.47899999999999,11.4815465362208,1.32675503361653
119.0,342.216666666667,21273.0,228.456,218.386,10.07,12.2064283851253,1.41051906651726
120.0,345.216666666667,21453.0,229.697,220.102,9.595,11.6391849847479,1.34497101213606
121.0,348.216666666667,21633.0,227.831,217.919,9.91199999999998,12.0324641708836,1.39041655713961
122.0,351.216666666667,21813.0,228.93,219.306,9.624,11.6912751027422,1.35099030805867
123.0,354.216666666667,21993.0,229.372,219.025,10.347,12.5785632151839,1.453521266387
124.0,357.216666666667,22173.0,228.576,218.799,9.77699999999999,11.8940542568442,1.37442254016856
125.0,360.216666666667,22353.0,228.962,219.15,9.81199999999998,11.9450230335189,1.38031225901412
126.0,363.216666666667,22533.0,228.624,218.925,9.69899999999998,11.8156889845127,1.36536700751898
127.0,366.216666666667,22713.0,228.118,218.65,9.46799999999999,11.542251023251,1.33376976664716
128.0,369.216666666667,22893.0,227.257,218.156,9.101,11.1024579271748,1.28294928683392
129.0,372.216666666667,23073.0,226.015,215.943,10.072,12.2953563879909,1.42079518002333
130.0,375.216666666667,23253.0,225.708,215.822,9.886,12.0764438092128,1.3954986431065
131.0,378.216666666667,23433.0,227.725,217.705,10.02,12.248332019248,1.41536125892782
132.0,381.216666666667,23613.0,227.352,217.481,9.87100000000001,12.0742151306577,1.39524110720034
133.0,384.216666666667,23793.0,225.249,215.302,9.947,12.1752028443159,1.40691078575861
134.0,387.216666666667,23973.0,224.811,214.83,9.98099999999999,12.2248155650564,1.41264380497917
135.0,390.216666666667,24153.0,224.296,214.472,9.82399999999998,12.0403377542724,1.39132639244452
136.0,393.216666666667,24333.0,226.842,216.363,10.479,12.8513909658411,1.48504799411073
137.0,396.216666666667,24513.0,224.451,214.398,10.053,12.3368396628401,1.42558879763777
138.0,399.216666666667,24693.0,224.431,214.033,10.398,12.7683269439082,1.47544949543599
139.0,402.216666666667,24873.0,223.712,213.777,9.935,12.2074804067463,1.41064063332681
140.0,405.216666666667,25053.0,225.253,214.92,10.333,12.7044729591232,1.4680708208417
141.0,408.216666666667,25233.0,224.722,214.826,9.89600000000002,12.1747508587637,1.4068585563743
142.0,411.216666666667,25413.0,222.864,213.167,9.697,11.9373001162403,1.37941983399618
143.0,414.216666666667,25593.0,225.014,214.653,10.361,12.7625335133335,1.47478003308153
144.0,417.216666666667,25773.0,224.612,214.386,10.226,12.6039227686541,1.45645170046318
145.0,420.216666666667,25953.0,223.693,214.513,9.18000000000001,11.3215425072245,1.30826569943145
146.0,423.216666666667,26133.0,222.243,212.796,9.447,11.6578401578344,1.34712671866196
147.0,426.216666666667,26313.0,222.085,213.199,8.886,10.9721078701094,1.26788663009181
148.0,429.216666666667,26493.0,224.077,214.747,9.32999999999998,11.5271868310629,1.33202901745891
149.0,432.216666666667,26673.0,221.768,213.052,8.71600000000001,10.774948923525,1.2451038434717
150.0,435.216666666667,26853.0,223.781,214.572,9.209,11.391087657268,1.31630201906772
151.0,438.216666666667,27033.0,221.838,212.544,9.29399999999998,11.5029320363333,1.32922624425276
152.0,441.216666666667,27213.0,221.504,212.23,9.274,11.484831138072,1.32713458719198
153.0,444.216666666667,27393.0,221.651,212.612,9.03900000000002,11.2002585221256,1.29425067652322
154.0,447.216666666667,27573.0,221.515,212.625,8.88999999999999,11.0219411942448,1.27364514123225
155.0,450.216666666667,27753.0,222.901,213.903,8.99800000000002,11.1621934060988,1.2898520457173
156.0,453.216666666667,27933.0,222.708,213.814,8.89400000000001,11.0394259488437,1.2756655995479
157.0,456.216666666667,28113.0,222.709,213.716,8.993,11.1685908786478,1.29059130840113
158.0,459.216666666667,28293.0,222.384,213.622,8.76199999999997,10.8877991355765,1.25814429811879
159.0,462.216666666667,28473.0,220.883,212.313,8.57000000000002,10.6551458886921,1.23125995240654
160.0,465.216666666667,28653.0,220.723,212.057,8.66600000000003,10.7804696350721,1.24574179166198
161.0,468.216666666667,28833.0,220.597,211.866,8.73099999999999,10.8673115299993,1.25577684407063
162.0,471.216666666667,29013.0,220.415,211.439,8.976,11.1783793944551,1.29172242454285
163.0,474.216666666667,29193.0,221.838,212.902,8.93600000000001,11.1346302133494,1.28666696915924
164.0,477.216666666667,29373.0,221.376,212.862,8.51400000000001,10.6145529695752,1.22656922023055
165.0,480.216666666667,29553.0,219.399,211.327,8.072,10.0689330064769,1.16351987141691
166.0,483.216666666667,29733.0,222.009,212.727,9.28199999999998,11.5844903204329,1.33865074674646
167.0,486.216666666667,29913.0,219.521,211.068,8.45299999999997,10.5554842166871,1.21974350516016
168.0,489.216666666667,30093.0,219.837,210.602,9.23499999999999,11.5381184768918,1.33329222848048
169.0,492.216666666667,30273.0,219.989,210.694,9.29500000000002,11.619225768211,1.34266461631005
170.0,495.216666666667,30453.0,220.182,210.458,9.72399999999999,12.1618983374336,1.40537337776046
171.0,498.216666666667,30633.0,220.585,210.729,9.85599999999999,12.3334528210476,1.42519742968206
172.0,501.216666666667,30813.0,222.0,211.756,10.244,12.8256704478219,1.48207584862131
173.0,504.216666666667,30993.0,219.998,209.781,10.217,12.7985098297513,1.47893729175289
174.0,507.216666666667,31173.0,220.917,211.019,9.898,12.4053199377727,1.43350206517396
175.0,510.216666666667,31353.0,220.377,210.507,9.87,12.3765955631423,1.43018280774569
176.0,513.216666666667,31533.0,218.773,209.193,9.57999999999998,12.0191047896126,1.38887280810795
177.0,516.216666666667,31713.0,218.051,208.827,9.22399999999999,11.5783728251664,1.33794383695759
178.0,519.216666666667,31893.0,220.052,210.4,9.65199999999999,12.1217757957616,1.40073700025183
179.0,522.216666666667,32073.0,217.486,208.407,9.07899999999998,11.4079272059768,1.31824792034006
180.0,525.216666666667,32253.0,216.878,208.131,8.74699999999999,10.9963044024009,1.27068267075693
181.0,528.216666666667,32433.0,217.139,208.008,9.131,11.4848148789229,1.32713270835903
182.0,531.216666666667,32613.0,217.409,208.292,9.11699999999999,11.4729416575728,1.32576069317434
183.0,534.216666666667,32793.0,219.014,209.872,9.142,11.5101340570969,1.33005847685053
184.0,537.216666666667,32973.0,218.256,209.318,8.93799999999999,11.2588757572994,1.30102421627052
185.0,540.216666666667,33153.0,217.179,209.116,8.06299999999999,10.1616923044577,1.17423871187298
186.0,543.216666666667,33333.0,214.68,206.831,7.84900000000002,9.89686444980497,1.14363641556264
187.0,546.216666666667,33513.0,214.544,206.88,7.66400000000002,9.66834023251319,1.11722920163561
188.0,549.216666666667,33693.0,214.896,207.473,7.42299999999997,9.36889267185207,1.08262641035153
189.0,552.216666666667,33873.0,215.295,207.631,7.66399999999999,9.67778404188279,1.1183204850771
190.0,555.216666666667,34053.0,215.209,207.514,7.69499999999999,9.72164928498856,1.12338935205489
191.0,558.216666666667,34233.0,214.962,207.653,7.309,9.23845746438868,1.06755391401866
192.0,561.216666666667,34413.0,216.472,209.128,7.34400000000002,9.28717526545103,1.07318352041204
193.0,564.216666666667,34593.0,216.057,209.329,6.72799999999998,8.51227678481009,0.983639794182404
194.0,567.216666666667,34773.0,216.084,208.79,7.29400000000001,9.23280398850591,1.06690062418865
195.0,570.216666666667,34953.0,213.599,207.485,6.11399999999998,7.74284791730321,0.894728111444005
196.0,573.216666666667,35133.0,212.774,207.078,5.696,7.21692282904169,0.83395461233786
197.0,576.216666666667,35313.0,213.578,208.834,4.744,6.01357743771292,0.694901519613105
198.0,579.216666666667,35493.0,211.914,208.655,3.25899999999999,4.13312088405503,0.477604556160304
199.0,582.216666666667,35673.0,209.91,208.176,1.73400000000001,2.20012697035065,0.254236615537773
200.0,585.216666666667,35853.0,209.278,208.276,1.00199999999998,1.27195186016008,0.146980942651021
201.0,588.216666666667,36033.0,209.283,208.899,0.383999999999986,0.487683303989663,0.0563544533254141
202.0,591.216666666667,36213.0,207.572,207.242,0.330000000000012,0.419298909609416,0.048452265307573
203.0,594.216666666667,36393.0,209.511,208.692,0.818999999999988,1.04110913196873,0.120305812202744
204.0,597.216666666667,36573.0,207.05,206.699,0.350999999999999,0.446397212033554,0.0515836212647402
205.0,600.216666666667,36753.0,208.918,207.967,0.950999999999993,1.21003053497252,0.139825597365294
206.0,603.216666666667,36933.0,206.628,206.073,0.554999999999978,0.706496012725097,0.0816394497166374
207.0,606.216666666667,37113.0,206.563,205.859,0.703999999999979,0.896581521860113,0.10360486223897
208.0,609.216666666667,37293.0,208.252,207.561,0.691000000000003,0.880430438975648,0.101738516930198
209.0,612.216666666667,37473.0,206.282,205.331,0.951000000000022,1.21226310863252,0.140083583371968
210.0,615.216666666667,37653.0,208.04,206.816,1.22399999999999,1.56097757465663,0.180379433032363
211.0,618.216666666667,37833.0,205.249,204.943,0.305999999999983,0.390422699378315,0.0451154624513531
212.0,621.216666666667,38013.0,206.835,206.384,0.451000000000022,0.575689203831547,0.0665240128211513
