"Frame","Time (aligned)","Time [ s]","Intensity Ch3-T2","background","Intensity (bg-subst)","bleach-Corrected","Normalized"
1.0,-12.3333333333333,0.0,282.316,269.33,12.986,12.986,1.03780712162022
2.0,-9.33333333333333,180.0,278.905,266.922,11.9829999999999,12.0227970333236,0.96083046226534
3.0,-6.33333333333333,360.0,277.685,264.854,12.831,12.9157442301854,1.03219246443182
4.0,-3.33333333333333,540.0,274.093,261.915,12.178,12.2979630410066,0.982821009192894
5.0,-0.333333333333333,720.0,273.621,261.438,12.183,12.3421077966535,0.986348942489719
6.0,3.21666666666667,933.0,285.965,273.217,12.748,12.9549249803105,1.03532368740351
7.0,6.21666666666667,1113.0,284.059,271.189,12.87,13.1192592139025,1.0484568491121
8.0,9.21666666666667,1293.0,283.078,270.567,12.511,12.7920795425088,1.02230950635669
9.0,12.2166666666667,1473.0,280.894,267.878,13.016,13.3482935446754,1.0667606731974
10.0,15.2166666666667,1653.0,279.505,266.865,12.64,13.0009581722584,1.03900253958543
11.0,18.2166666666667,1833.0,275.802,263.583,12.219,12.6044906510669,1.00731789327528
12.0,21.2166666666667,2013.0,275.216,262.712,12.504,12.9354484878455,1.03376717711671
13.0,24.2166666666667,2193.0,276.34,264.576,11.764,12.2042822286294,0.975334283931519
14.0,27.2166666666667,2373.0,274.167,261.785,12.3819999999999,12.8811549299448,1.02942817811413
15.0,30.2166666666667,2553.0,273.671,261.292,12.379,12.9133429701439,1.032000562016
16.0,33.2166666666667,2733.0,274.934,261.775,13.1590000000001,13.7640972063116,1.09999061322834
17.0,36.2166666666667,2913.0,274.307,261.602,12.705,13.3245974247505,1.06486694133132
18.0,39.2166666666667,3093.0,273.696,261.551,12.145,12.7706983753685,1.02060077945643
19.0,42.2166666666667,3273.0,273.086,260.827,12.259,12.9238898268303,1.03284343918987
20.0,45.2166666666667,3453.0,270.651,258.75,11.901,12.5784276044076,1.00523500282139
21.0,48.2166666666667,3633.0,269.44,257.728,11.712,12.4097357216301,0.991753589198568
22.0,51.2166666666667,3813.0,268.273,256.357,11.916,12.6571128503963,1.01152332167658
23.0,54.2166666666667,3993.0,269.454,257.613,11.841,12.6080984077768,1.00760621574614
24.0,57.2166666666667,4173.0,268.939,256.583,12.356,13.1880554005115,1.05395486023201
25.0,60.2166666666667,4353.0,268.146,255.738,12.408,13.274896518006,1.06089497498523
26.0,63.2166666666667,4533.0,267.312,255.476,11.836,12.6924625237859,1.01434837502563
27.0,66.2166666666667,4713.0,265.296,252.559,12.737,13.6900478606125,1.09407278338713
28.0,69.2166666666667,4893.0,265.884,253.015,12.869,13.8632496411342,1.10791461623041
29.0,72.2166666666667,5073.0,264.685,253.255,11.43,12.3405543013389,0.986224791211353
30.0,75.2166666666667,5253.0,264.405,252.114,12.291,13.2993324806108,1.06284783314131
31.0,78.2166666666667,5433.0,262.392,249.999,12.393,13.4387686755579,1.07399120878644
32.0,81.2166666666667,5613.0,260.828,249.386,11.442,12.4340271680679,0.993694898000941
33.0,84.2166666666667,5793.0,260.824,248.336,12.488,13.5992905101259,1.0868196935462
34.0,87.2166666666667,5973.0,261.719,249.46,12.259,13.3776172598233,1.0691041477402
35.0,90.2166666666667,6153.0,258.609,247.152,11.457,12.5280094872756,1.00120571889884
36.0,93.2166666666667,6333.0,258.334,246.127,12.207,13.3750320794015,1.0688975468891
37.0,96.2166666666667,6513.0,259.162,247.424,11.738,12.8867147289967,1.02987250269837
38.0,99.2166666666667,6693.0,259.37,246.598,12.772,14.0493728923504,1.12278909918215
39.0,102.216666666667,6873.0,256.171,244.122,12.049,13.2796568709123,1.06127540992652
40.0,105.216666666667,7053.0,257.096,245.264,11.832,13.0653162883141,1.04414587172594
41.0,108.216666666667,7233.0,256.89,244.82,12.07,13.3531352597682,1.06714761039162
42.0,111.216666666667,7413.0,254.247,242.653,11.594,12.8502617102891,1.02695927288016
43.0,114.216666666667,7593.0,253.345,241.614,11.731,13.0258204598276,1.04098946851652
44.0,117.216666666667,7773.0,253.735,241.768,11.967,13.3117632922837,1.06384127106535
45.0,120.216666666667,7953.0,253.438,241.674,11.764,13.1091521839849,1.0476491217421
46.0,123.216666666667,8133.0,252.617,241.053,11.564,12.9088097699287,1.03163828052308
47.0,126.216666666667,8313.0,250.374,238.649,11.725,13.1110934492569,1.04780426258024
48.0,129.216666666667,8493.0,249.167,238.02,11.147,12.4859502203177,0.997844452398063
49.0,132.216666666667,8673.0,249.187,238.021,11.166,12.5281956351118,1.00122059534656
50.0,135.216666666667,8853.0,250.702,239.758,10.944,12.2994087230056,0.982936544313349
51.0,138.216666666667,9033.0,250.531,239.268,11.263,12.6785501245398,1.01323653250164
52.0,141.216666666667,9213.0,251.688,240.394,11.294,12.7338851820342,1.01765876542502
53.0,144.216666666667,9393.0,250.915,239.206,11.709,13.2227271454345,1.05672573531288
54.0,147.216666666667,9573.0,250.039,238.944,11.095,12.5489453991464,1.00287886216367
55.0,150.216666666667,9753.0,248.335,237.348,10.987,12.4459631322325,0.994648789007674
56.0,153.216666666667,9933.0,250.559,239.319,11.24,12.7519349189972,1.01910125314746
57.0,156.216666666667,10113.0,248.402,237.155,11.247,12.779031670266,1.02126675456742
58.0,159.216666666667,10293.0,249.736,238.476,11.26,12.8127500732271,1.02396144105461
59.0,162.216666666667,10473.0,248.628,237.729,10.899,12.4200893297222,0.992581022450718
60.0,165.216666666667,10653.0,246.324,235.839,10.485,11.9655355925544,0.956254277834072
61.0,168.216666666667,10833.0,245.918,235.224,10.694,12.2214072129964,0.976702867847561
62.0,171.216666666667,11013.0,245.375,234.579,10.796,12.3552935514882,0.98740271349475
63.0,174.216666666667,11193.0,245.259,234.865,10.394,11.9117079018823,0.951952509720723
64.0,177.216666666667,11373.0,246.807,235.986,10.821,12.418008793099,0.992414751410805
65.0,180.216666666667,11553.0,244.584,234.509,10.075,11.5775086840507,0.925244183191733
66.0,183.216666666667,11733.0,246.063,235.598,10.465,12.0416825846235,0.962339746081358
67.0,186.216666666667,11913.0,245.261,235.046,10.215,11.7694648549748,0.940584817815476
68.0,189.216666666667,12093.0,244.736,234.507,10.229,11.8008850446939,0.943095837117273
69.0,192.216666666667,12273.0,244.906,233.896,11.01,12.7181680294425,1.01640269173864
70.0,195.216666666667,12453.0,244.082,234.252,9.82999999999998,11.369451300733,0.908616781827739
71.0,198.216666666667,12633.0,243.995,233.403,10.592,12.2660786258157,0.980272890206773
72.0,201.216666666667,12813.0,243.111,233.198,9.91299999999998,11.4939107822871,0.918563257748732
73.0,204.216666666667,12993.0,241.244,231.092,10.152,11.7853517460406,0.941854456556308
74.0,207.216666666667,13173.0,240.411,230.776,9.63499999999999,11.1986142179644,0.894963929437925
75.0,210.216666666667,13353.0,241.616,232.198,9.41800000000001,10.9593903076043,0.875845780829154
76.0,213.216666666667,13533.0,241.189,231.438,9.75100000000001,11.3601912221141,0.907876740588136
77.0,216.216666666667,13713.0,239.354,229.492,9.86200000000002,11.5028116546002,0.919274592160803
78.0,219.216666666667,13893.0,240.667,231.103,9.56399999999999,11.1679886348742,0.892516413017565
79.0,222.216666666667,14073.0,238.061,228.937,9.124,10.6662320564156,0.852417340905743
80.0,225.216666666667,14253.0,239.356,230.401,8.95499999999998,10.4803497423419,0.837562113019642
81.0,228.216666666667,14433.0,237.621,228.684,8.93700000000001,10.4708168470576,0.836800268986402
82.0,231.216666666667,14613.0,238.881,229.422,9.459,11.0944797099347,0.886641772188608
83.0,234.216666666667,14793.0,238.301,229.216,9.08499999999998,10.667286249909,0.852501589289779
84.0,237.216666666667,14973.0,236.383,227.039,9.34400000000002,10.98306730131,0.877737984177865
85.0,240.216666666667,15153.0,235.525,226.722,8.803,10.3580477485158,0.827788057869402
86.0,243.216666666667,15333.0,236.55,227.959,8.59100000000001,10.1191028470038,0.808692206917295
87.0,246.216666666667,15513.0,235.763,227.409,8.35400000000001,9.85005452611112,0.787190569501434
88.0,249.216666666667,15693.0,235.672,227.427,8.245,9.73140572780777,0.777708468173012
89.0,252.216666666667,15873.0,233.676,225.121,8.55499999999998,10.1074282348689,0.807759202480535
90.0,255.216666666667,16053.0,234.482,226.59,7.892,9.33337101374772,0.745898575911839
91.0,258.216666666667,16233.0,234.21,226.172,8.03800000000001,9.51536416945057,0.76044299244307
92.0,261.216666666667,16413.0,233.833,225.575,8.25800000000001,9.78528538613,0.782014389404898
93.0,264.216666666667,16593.0,231.732,223.559,8.173,9.69385804388677,0.774707755576865
94.0,267.216666666667,16773.0,232.594,225.033,7.56100000000001,8.97648589353951,0.7173772514584
95.0,270.216666666667,16953.0,232.402,224.223,8.17899999999997,9.71929544084255,0.776740645744445
96.0,273.216666666667,17133.0,231.776,224.299,7.477,8.89334217962989,0.710732623519591
97.0,276.216666666667,17313.0,229.232,222.385,6.84700000000001,8.15148366630061,0.651445233378846
98.0,279.216666666667,17493.0,229.166,221.97,7.196,8.5747595123174,0.685272330822713
99.0,282.216666666667,17673.0,229.874,223.465,6.40899999999999,7.64383580220925,0.610875345143107
100.0,285.216666666667,17853.0,226.311,221.978,4.333,5.1724458430209,0.413368329900047
101.0,288.216666666667,18033.0,224.958,221.472,3.48599999999999,4.1650172883331,0.332857277337397
102.0,291.216666666667,18213.0,223.773,221.286,2.48699999999999,2.97401685080988,0.237675640504315
103.0,294.216666666667,18393.0,225.07,223.092,1.97799999999998,2.36738158640745,0.189194938392594
104.0,297.216666666667,18573.0,224.622,223.17,1.45200000000003,1.7393185509612,0.139001784918659
105.0,300.216666666667,18753.0,224.049,222.398,1.65100000000001,1.97936728106312,0.158185850961756
106.0,303.216666666667,18933.0,224.47,222.369,2.101,2.52097479307948,0.201469705350605
107.0,306.216666666667,19113.0,222.688,221.086,1.60199999999998,1.92382030135548,0.153746681769927
108.0,309.216666666667,19293.0,222.3,220.868,1.43200000000002,1.7210798537202,0.137544195985517
109.0,312.216666666667,19473.0,222.283,220.761,1.52199999999999,1.83073381327565,0.14630745335041
110.0,315.216666666667,19653.0,221.924,220.201,1.72300000000001,2.07417299729178,0.165762475593853
111.0,318.216666666667,19833.0,222.053,220.151,1.90199999999999,2.2914797476018,0.183129062152291
112.0,321.216666666667,20013.0,224.182,222.729,1.45299999999997,1.75191754903637,0.140008663859648
113.0,324.216666666667,20193.0,222.36,220.6,1.76000000000002,2.12373361708915,0.169723230574418
114.0,327.216666666667,20373.0,223.861,221.723,2.13799999999998,2.58185142574185,0.20633480645312
115.0,330.216666666667,20553.0,221.229,219.465,1.76400000000001,2.13184293673291,0.170371306169504
116.0,333.216666666667,20733.0,220.753,219.256,1.49699999999999,1.81054142699188,0.144693730703882
117.0,336.216666666667,20913.0,222.407,220.782,1.625,1.96683122181996,0.157184001927442
118.0,339.216666666667,21093.0,220.788,219.285,1.50300000000001,1.82052584069417,0.145491658906981
119.0,342.216666666667,21273.0,221.231,219.681,1.54999999999998,1.87884448827647,0.150152332538905
120.0,345.216666666667,21453.0,222.731,220.985,1.74599999999998,2.11797988362372,0.169263407259593
121.0,348.216666666667,21633.0,220.898,219.373,1.52500000000001,1.85124171313535,0.147946391015885
122.0,351.216666666667,21813.0,222.348,220.245,2.10300000000001,2.55473311939599,0.20416758240784
123.0,354.216666666667,21993.0,221.954,220.23,1.72400000000002,2.09581936628755,0.167492396732081
124.0,357.216666666667,22173.0,221.726,219.889,1.83699999999999,2.23477320955535,0.178597224093842
125.0,360.216666666667,22353.0,221.819,220.04,1.779,2.16573542362721,0.173079904988873
126.0,363.216666666667,22533.0,221.89,220.257,1.63299999999998,1.98938242207538,0.158986234811021
127.0,366.216666666667,22713.0,221.822,219.925,1.89699999999999,2.31259507721873,0.184816544013666
128.0,369.216666666667,22893.0,220.649,219.219,1.43000000000001,1.74448025885728,0.139414295099952
129.0,372.216666666667,23073.0,219.197,217.074,2.12299999999999,2.59164432205168,0.207117429087621
130.0,375.216666666667,23253.0,219.101,216.991,2.10999999999999,2.57751329531042,0.20598811442661
131.0,378.216666666667,23433.0,220.602,218.961,1.64099999999999,2.0059394055475,0.160309425582614
132.0,381.216666666667,23613.0,220.51,218.624,1.886,2.306956715269,0.184365940888323
133.0,384.216666666667,23793.0,218.192,216.404,1.78800000000001,2.18852545346708,0.174901224507567
134.0,387.216666666667,23973.0,217.747,215.965,1.78200000000001,2.18260909096591,0.17442840430598
135.0,390.216666666667,24153.0,217.402,215.241,2.16099999999997,2.64853113670422,0.211663674380452
136.0,393.216666666667,24333.0,218.945,217.216,1.72899999999999,2.12043658554624,0.169459740445399
137.0,396.216666666667,24513.0,217.316,215.578,1.738,2.13283868835333,0.170450884032052
138.0,399.216666666667,24693.0,216.541,214.82,1.721,2.1133189719625,0.168890919402265
139.0,402.216666666667,24873.0,216.657,214.601,2.05600000000001,2.52627878372124,0.201893586396425
140.0,405.216666666667,25053.0,217.804,215.749,2.05500000000001,2.526632336301,0.201921841392971
141.0,408.216666666667,25233.0,217.795,215.973,1.82199999999997,2.24155174461066,0.179138946868719
142.0,411.216666666667,25413.0,216.097,214.592,1.505,1.85270049241432,0.148062972836661
143.0,414.216666666667,25593.0,217.886,215.723,2.16299999999998,2.66435286066403,0.212928105136789
144.0,417.216666666667,25773.0,217.64,215.899,1.74099999999999,2.14584681598149,0.171490459535782
145.0,420.216666666667,25953.0,217.749,215.632,2.11699999999999,2.61086116424773,0.20865318880471
146.0,423.216666666667,26133.0,215.607,213.825,1.78200000000001,2.19903367854991,0.175741014344818
147.0,426.216666666667,26313.0,216.091,213.691,2.40000000000001,2.96343224040769,0.236829746152324
148.0,429.216666666667,26493.0,217.989,215.959,2.03,2.50805887106729,0.2004374986783
149.0,432.216666666667,26673.0,215.93,214.153,1.77700000000002,2.19677423555576,0.175560445576127
150.0,435.216666666667,26853.0,217.168,215.403,1.76500000000001,2.18321964546402,0.174477198222989
151.0,438.216666666667,27033.0,215.159,213.4,1.75899999999999,2.17706665073274,0.173985466993095
152.0,441.216666666667,27213.0,215.284,213.217,2.06699999999998,2.55975263773934,0.204568729172343
153.0,444.216666666667,27393.0,215.246,213.496,1.75,2.168431509428,0.173295369107506
154.0,447.216666666667,27573.0,215.442,213.969,1.47300000000001,1.82624514950762,0.145948731093747
155.0,450.216666666667,27753.0,216.682,214.874,1.80799999999999,2.24285904403495,0.179243422816094
156.0,453.216666666667,27933.0,216.753,214.72,2.03299999999999,2.52340375016854,0.20166382124196
157.0,456.216666666667,28113.0,216.195,214.473,1.72199999999998,2.13858706694443,0.170910279399341
158.0,459.216666666667,28293.0,216.439,214.701,1.738,2.15966616042364,0.172594865363458
159.0,462.216666666667,28473.0,214.964,213.448,1.51599999999999,1.88485427855975,0.150632619244237
160.0,465.216666666667,28653.0,214.493,213.052,1.441,1.79259828573032,0.143259761830827
161.0,468.216666666667,28833.0,215.012,212.658,2.35400000000001,2.92997953746632,0.234156293715083
162.0,471.216666666667,29013.0,214.743,212.55,2.19299999999998,2.73108132932709,0.218260869651908
163.0,474.216666666667,29193.0,215.942,213.603,2.339,2.91449195042795,0.23291856630671
164.0,477.216666666667,29373.0,215.657,213.566,2.09100000000001,2.60688633537488,0.20833553088761
165.0,480.216666666667,29553.0,214.338,211.82,2.518,3.14092830900755,0.251014767256014
166.0,483.216666666667,29733.0,215.453,213.535,1.91800000000001,2.39377854283455,0.19130451404092
167.0,486.216666666667,29913.0,214.039,211.921,2.11799999999999,2.64480250454789,0.211365691860373
168.0,489.216666666667,30093.0,213.525,211.716,1.809,2.26014686786111,0.180625020435384
169.0,492.216666666667,30273.0,213.753,211.567,2.18599999999998,2.73261189126509,0.21838318815486
170.0,495.216666666667,30453.0,213.439,211.511,1.928,2.41136774933896,0.192710197374811
171.0,498.216666666667,30633.0,213.408,211.692,1.71599999999998,2.14734223223594,0.17160996928772
172.0,501.216666666667,30813.0,214.771,212.659,2.11199999999999,2.64426161516983,0.21132246539737
173.0,504.216666666667,30993.0,212.884,210.687,2.19699999999997,2.75211178388601,0.219941568520856
174.0,507.216666666667,31173.0,213.727,211.462,2.26500000000001,2.83876032118159,0.226866292768764
175.0,510.216666666667,31353.0,214.031,211.29,2.74100000000001,3.43710723795068,0.274684611837181
176.0,513.216666666667,31533.0,212.038,209.926,2.11200000000002,2.64972331061191,0.211758949797948
177.0,516.216666666667,31713.0,212.267,209.911,2.35599999999999,2.95735541804987,0.23634410241909
178.0,519.216666666667,31893.0,213.763,211.466,2.297,2.88476160410945,0.230542594865345
179.0,522.216666666667,32073.0,211.571,209.072,2.499,3.14003856016478,0.250943660857933
180.0,525.216666666667,32253.0,211.081,209.121,1.95999999999998,2.4640169919636,0.196917787005472
181.0,528.216666666667,32433.0,211.097,208.913,2.184,2.74699766680183,0.219532861672653
182.0,531.216666666667,32613.0,211.566,209.439,2.12700000000001,2.67664219651832,0.213910236683806
183.0,534.216666666667,32793.0,213.088,210.737,2.351,2.96000056532868,0.236555495664407
184.0,537.216666666667,32973.0,212.473,210.082,2.39100000000002,3.0118563365074,0.240699673134482
185.0,540.216666666667,33153.0,212.006,209.975,2.03100000000001,2.55964244950435,0.204559923217084
186.0,543.216666666667,33333.0,210.254,207.602,2.65199999999999,3.34392719083738,0.267237906424653
187.0,546.216666666667,33513.0,210.034,207.514,2.51999999999998,3.1790471536969,0.254061125525422
188.0,549.216666666667,33693.0,210.62,208.095,2.52500000000001,3.18691283799362,0.25468973042143
189.0,552.216666666667,33873.0,211.088,208.737,2.351,2.96874612245126,0.23725441769308
190.0,555.216666666667,34053.0,210.75,208.644,2.10599999999999,2.66066190957581,0.212633133989022
191.0,558.216666666667,34233.0,210.386,207.902,2.48400000000001,3.13973571508299,0.250919458271869
192.0,561.216666666667,34413.0,212.476,210.045,2.43100000000001,3.07422699759143,0.245684173076971
193.0,564.216666666667,34593.0,212.255,209.817,2.43799999999999,3.08456165299747,0.246510091680072
194.0,567.216666666667,34773.0,211.942,209.461,2.48099999999999,3.14046979647423,0.250978124134774
195.0,570.216666666667,34953.0,210.394,207.804,2.59,3.28000917661358,0.262129746070326
196.0,573.216666666667,35133.0,210.711,207.846,2.86500000000001,3.63000068560473,0.29010015116332
197.0,576.216666666667,35313.0,211.935,209.286,2.649,3.35791876739071,0.268356076591736
198.0,579.216666666667,35493.0,211.283,209.412,1.87099999999998,2.37283497209786,0.189630758699575
199.0,582.216666666667,35673.0,211.184,209.072,2.11199999999999,2.6797394240949,0.214157759002938
200.0,585.216666666667,35853.0,211.52,209.153,2.36700000000002,3.00470065169561,0.240127809538474
201.0,588.216666666667,36033.0,211.931,209.867,2.06400000000002,2.62129775894456,0.209487254129046
202.0,591.216666666667,36213.0,210.466,208.006,2.46000000000001,3.12568278072463,0.249796384549648
203.0,594.216666666667,36393.0,211.98,209.577,2.40299999999999,3.05468283775443,0.244122254990961
204.0,597.216666666667,36573.0,209.622,207.203,2.41900000000001,3.07645258093782,0.24586203587126
205.0,600.216666666667,36753.0,211.648,208.73,2.91800000000001,3.71279611046252,0.296716944752954
206.0,603.216666666667,36933.0,209.093,206.515,2.578,3.28170580325292,0.262265336029439
207.0,606.216666666667,37113.0,209.037,206.461,2.57599999999999,3.28067329589732,0.262182820744766
208.0,609.216666666667,37293.0,210.488,207.986,2.50200000000001,3.18789719003918,0.254768397259799
209.0,612.216666666667,37473.0,208.778,206.032,2.74599999999998,3.50039379211861,0.279742307557055
210.0,615.216666666667,37653.0,209.788,207.487,2.30100000000002,2.93448480333738,0.234516342768355
211.0,618.216666666667,37833.0,208.008,205.615,2.393,3.05320758043255,0.244004356288137
212.0,621.216666666667,38013.0,209.843,206.878,2.965,3.78474166155312,0.302466644836946
213.0,624.216666666667,38193.0,208.035,205.037,2.99799999999999,3.82860544957033,0.305972123936399
214.0,627.216666666667,38373.0,209.431,206.728,2.703,3.45344077698937,0.27598994551465
215.0,630.216666666667,38553.0,209.545,206.784,2.761,3.52914015109576,0.282039641306257
