"Frame","Time (aligned)","Time [ s]","Intensity Ch3-T2","background","Intensity (bg-subst)","bleach-Corrected","Normalized"
1.0,-12.3333333333333,0.0,275.774,265.05,10.724,10.724,1.00130640288375
2.0,-9.33333333333333,180.0,271.898,261.574,10.324,10.3582872879941,0.967159584518635
3.0,-6.33333333333333,360.0,271.632,261.035,10.597,10.6669894479989,0.99598329296668
4.0,-3.33333333333333,540.0,269.784,259.594,10.19,10.2903796508341,0.960819007132112
5.0,-0.333333333333333,720.0,269.18,257.818,11.362,11.510385683787,1.07473171249883
6.0,3.21666666666667,933.0,280.772,269.346,11.426,11.6114663339369,1.08416967428572
7.0,6.21666666666667,1113.0,277.555,266.779,10.776,10.9847037520601,1.02564847078692
8.0,9.21666666666667,1293.0,276.125,265.336,10.789,11.0313920697088,1.030007787404
9.0,12.2166666666667,1473.0,269.503,259.105,10.398,10.6634569973521,0.995653465901168
10.0,15.2166666666667,1653.0,268.483,258.325,10.158,10.4480801514083,0.975543598792218
11.0,18.2166666666667,1833.0,270.369,260.737,9.63200000000001,9.93587478116675,0.927718671823333
12.0,21.2166666666667,2013.0,267.954,261.982,5.97199999999998,6.17806288942842,0.576849489798877
13.0,24.2166666666667,2193.0,263.348,261.048,2.30000000000001,2.3860803405175,0.222789772729878
14.0,27.2166666666667,2373.0,259.721,257.442,2.279,2.37087320992927,0.221369873697102
15.0,30.2166666666667,2553.0,257.191,255.601,1.58999999999998,1.65863279122129,0.15486755258139
16.0,33.2166666666667,2733.0,256.476,254.698,1.77799999999999,1.85975870756302,0.173646801725257
17.0,36.2166666666667,2913.0,259.164,257.187,1.97699999999998,2.07341433362701,0.193595957487101
18.0,39.2166666666667,3093.0,256.6,254.431,2.16900000000001,2.28074473249686,0.212954522938501
19.0,42.2166666666667,3273.0,255.751,253.658,2.09300000000002,2.2065177753125,0.206023906797577
20.0,45.2166666666667,3453.0,253.637,252.139,1.49799999999999,1.58326901532664,0.147830790986014
21.0,48.2166666666667,3633.0,254.77,252.675,2.095,2.21980843039746,0.207264863346914
22.0,51.2166666666667,3813.0,251.796,250.458,1.33799999999999,1.42121659901226,0.132699858306196
23.0,54.2166666666667,3993.0,251.635,250.023,1.61199999999999,1.71643059144803,0.16026416834413
24.0,57.2166666666667,4173.0,253.206,251.698,1.50799999999998,1.60954900809089,0.150284569895244
25.0,60.2166666666667,4353.0,253.664,251.698,1.96599999999998,2.10335642765954,0.196391669019227
26.0,63.2166666666667,4533.0,254.364,253.053,1.31100000000001,1.40586501932101,0.13126647197281
27.0,66.2166666666667,4713.0,252.254,250.439,1.815,1.95080763657153,0.182148095607384
28.0,69.2166666666667,4893.0,253.796,252.255,1.541,1.66005654650616,0.155000489478338
29.0,72.2166666666667,5073.0,253.221,251.716,1.505,1.62489363285346,0.151717306842708
30.0,75.2166666666667,5253.0,248.903,247.082,1.821,1.9703917050844,0.18397667199646
31.0,78.2166666666667,5433.0,249.889,248.604,1.285,1.39343320810876,0.13010570619826
32.0,81.2166666666667,5613.0,248.477,246.959,1.518,1.64961136524446,0.154025216550642
33.0,84.2166666666667,5793.0,246.53,244.86,1.66999999999999,1.81861107878844,0.169804822598488
34.0,87.2166666666667,5973.0,247.519,246.217,1.30199999999999,1.42080574861652,0.132661496954845
35.0,90.2166666666667,6153.0,246.839,244.828,2.011,2.19898988207307,0.205321022826963
36.0,93.2166666666667,6333.0,245.537,244.321,1.21600000000001,1.33235348640553,0.124402655431028
37.0,96.2166666666667,6513.0,244.725,243.488,1.23699999999999,1.35805640822703,0.12680255287533
38.0,99.2166666666667,6693.0,243.694,242.633,1.06099999999998,1.16711436257309,0.10897417793193
39.0,102.216666666667,6873.0,243.367,242.019,1.34799999999998,1.4856815886787,0.138718993602246
40.0,105.216666666667,7053.0,242.959,241.559,1.40000000000001,1.54592991917172,0.144344416866487
41.0,108.216666666667,7233.0,240.475,239.054,1.42099999999999,1.57206339719391,0.146784515605132
42.0,111.216666666667,7413.0,241.795,239.778,2.017,2.23555096339943,0.208734753228719
43.0,114.216666666667,7593.0,241.198,239.84,1.358,1.50789056213844,0.140792658962812
44.0,117.216666666667,7773.0,241.229,239.266,1.96300000000002,2.1835874774591,0.203882890939628
45.0,120.216666666667,7953.0,238.841,236.75,2.09100000000001,2.33009496911872,0.217562384549215
46.0,123.216666666667,8133.0,240.705,239.279,1.42600000000002,1.59183351192654,0.148630463242911
47.0,126.216666666667,8313.0,241.362,239.352,2.00999999999999,2.2476160198726,0.209861274890201
48.0,129.216666666667,8493.0,239.804,236.872,2.93199999999999,3.28418462778965,0.306646316305311
49.0,132.216666666667,8673.0,241.544,238.509,3.03500000000002,3.40525467961352,0.317950700685086
50.0,135.216666666667,8853.0,239.369,236.443,2.92599999999999,3.28838358219247,0.307038375231921
51.0,138.216666666667,9033.0,240.692,237.821,2.87100000000001,3.23183143101783,0.301758066478842
52.0,141.216666666667,9213.0,240.666,237.4,3.26599999999999,3.68238613463111,0.343826633205564
53.0,144.216666666667,9393.0,238.623,235.351,3.27199999999999,3.69500070201227,0.345004463034766
54.0,147.216666666667,9573.0,238.264,235.293,2.971,3.360334996022,0.313756522505703
55.0,150.216666666667,9753.0,237.805,234.549,3.256,3.68836406285147,0.34438479599958
56.0,153.216666666667,9933.0,239.433,236.712,2.721,3.08701200307752,0.288236188405493
57.0,156.216666666667,10113.0,240.237,236.324,3.91299999999998,4.44601679787951,0.415127292712184
58.0,159.216666666667,10293.0,237.774,234.257,3.517,4.00199307349376,0.37366852748841
59.0,162.216666666667,10473.0,237.698,234.017,3.68100000000001,4.19472876619026,0.391664376347161
60.0,165.216666666667,10653.0,236.723,233.868,2.85500000000002,3.2581405929178,0.304214568928016
61.0,168.216666666667,10833.0,238.766,235.455,3.31099999999998,3.7839049263354,0.3533055045359
62.0,171.216666666667,11013.0,237.093,233.51,3.583,4.1005017409209,0.382866341684079
63.0,174.216666666667,11193.0,238.214,234.937,3.27699999999999,3.75549998022591,0.350653317440321
64.0,177.216666666667,11373.0,236.948,233.094,3.85400000000001,4.42278956553034,0.412958551899754
65.0,180.216666666667,11553.0,238.281,234.604,3.67699999999999,4.22535974503766,0.394524409473466
66.0,183.216666666667,11733.0,237.96,233.825,4.13500000000002,4.75798924867832,0.444256350200824
67.0,186.216666666667,11913.0,237.092,233.673,3.41900000000001,3.93928539786187,0.367813473672654
68.0,189.216666666667,12093.0,235.362,231.591,3.77099999999999,4.35048758466523,0.406207671968626
69.0,192.216666666667,12273.0,236.746,232.826,3.92000000000002,4.52817608314392,0.422798555150789
70.0,195.216666666667,12453.0,235.122,230.648,4.47400000000002,5.17466176190028,0.483161316201832
71.0,198.216666666667,12633.0,236.438,231.928,4.50999999999999,5.2228110463018,0.487657044173253
72.0,201.216666666667,12813.0,233.655,230.186,3.46899999999999,4.02223106060264,0.375558160654543
73.0,204.216666666667,12993.0,235.452,231.731,3.721,4.31967039470223,0.403330252197194
74.0,207.216666666667,13173.0,233.76,229.356,4.404,5.11870233688792,0.477936350651052
75.0,210.216666666667,13353.0,232.548,228.743,3.80500000000001,4.4277426333016,0.413421022850265
76.0,213.216666666667,13533.0,232.664,228.763,3.90099999999998,4.54477550584215,0.424348453344738
77.0,216.216666666667,13713.0,234.361,230.374,3.98699999999999,4.65034577843144,0.434205613909624
78.0,219.216666666667,13893.0,232.989,228.102,4.887,5.70660397936324,0.532829084600736
79.0,222.216666666667,14073.0,231.797,227.801,3.99600000000001,4.67144490327013,0.436175652029377
80.0,225.216666666667,14253.0,233.381,229.23,4.15100000000001,4.85806050033069,0.453600063836045
81.0,228.216666666667,14433.0,233.421,228.867,4.554,5.3355824014211,0.498186574194032
82.0,231.216666666667,14613.0,231.254,226.786,4.46799999999999,5.24052599048398,0.489311099286675
83.0,234.216666666667,14793.0,233.212,228.242,4.97,5.83559853187099,0.544873384429451
84.0,237.216666666667,14973.0,230.824,226.268,4.55600000000001,5.3551856404932,0.500016940549884
85.0,240.216666666667,15153.0,230.657,226.181,4.476,5.26668428062671,0.491753514748108
86.0,243.216666666667,15333.0,232.528,227.097,5.43099999999998,6.39702567362092,0.597294178143263
87.0,246.216666666667,15513.0,231.921,227.132,4.78899999999999,5.64662570332128,0.527228876484851
88.0,249.216666666667,15693.0,231.504,226.667,4.83699999999999,5.70901267500377,0.533053985977783
89.0,252.216666666667,15873.0,230.885,226.562,4.32299999999998,5.10747074919205,0.476887650476264
90.0,255.216666666667,16053.0,230.937,226.48,4.45700000000002,5.27101300155522,0.492157690054152
91.0,258.216666666667,16233.0,229.337,223.669,5.66799999999998,6.70976413441722,0.626494758451295
92.0,261.216666666667,16413.0,230.726,225.862,4.864,5.76357812038463,0.538148794802482
93.0,264.216666666667,16593.0,230.357,225.594,4.76300000000001,5.64931431090575,0.527479913410362
94.0,267.216666666667,16773.0,229.927,224.614,5.31299999999999,6.30764046453846,0.588948226802591
95.0,270.216666666667,16953.0,227.778,222.923,4.85499999999999,5.76930912890214,0.538683902553653
96.0,273.216666666667,17133.0,227.859,222.633,5.226,6.21594305613826,0.580386384005223
97.0,276.216666666667,17313.0,227.465,221.716,5.749,6.84429379254595,0.639055874458574
98.0,279.216666666667,17493.0,226.926,222.175,4.75099999999998,5.6612955034769,0.528598604648302
99.0,282.216666666667,17673.0,227.526,222.108,5.41800000000001,6.46189770266341,0.603351318953437
100.0,285.216666666667,17853.0,229.074,223.499,5.57500000000002,6.65506244515154,0.621387228452202
101.0,288.216666666667,18033.0,228.572,223.356,5.21600000000001,6.23199373951393,0.581885046074854
102.0,291.216666666667,18213.0,226.711,221.634,5.07700000000003,6.07120367975949,0.566871980394867
103.0,294.216666666667,18393.0,228.704,223.515,5.18900000000002,6.21048688163216,0.579876937672865
104.0,297.216666666667,18573.0,226.353,220.959,5.39400000000001,6.46135279881858,0.603300440950007
105.0,300.216666666667,18753.0,228.737,223.173,5.56399999999999,6.67062359287409,0.62284018228014
106.0,303.216666666667,18933.0,226.521,220.656,5.86499999999998,7.03737132861071,0.657083641440546
107.0,306.216666666667,19113.0,227.928,222.569,5.35900000000001,6.43555118287402,0.600891328375405
108.0,309.216666666667,19293.0,225.88,220.223,5.65699999999998,6.79898654503844,0.634825509200619
109.0,312.216666666667,19473.0,227.598,221.761,5.83700000000002,7.02102054408022,0.655556958743553
110.0,315.216666666667,19653.0,227.404,221.743,5.661,6.81479590114258,0.63630163839612
111.0,318.216666666667,19833.0,227.37,221.791,5.57900000000001,6.72143297154077,0.627584284871103
112.0,321.216666666667,20013.0,226.738,221.91,4.828,5.82123738936528,0.543532475818512
113.0,324.216666666667,20193.0,225.102,219.217,5.88499999999999,7.10123428214176,0.663046564256445
114.0,327.216666666667,20373.0,226.688,220.591,6.09699999999998,7.3627446879084,0.687463949906844
115.0,330.216666666667,20553.0,224.662,219.542,5.12,6.18766203858981,0.577745768194768
116.0,333.216666666667,20733.0,225.019,218.97,6.04900000000001,7.31594194513963,0.683093949346708
117.0,336.216666666667,20913.0,226.696,220.189,6.50700000000001,7.8757973910046,0.735367992859757
118.0,339.216666666667,21093.0,225.753,220.375,5.37799999999999,6.51416365352836,0.608231422576514
119.0,342.216666666667,21273.0,224.537,218.125,6.41200000000001,7.77235539279281,0.725709550568023
120.0,345.216666666667,21453.0,223.94,218.545,5.39500000000001,6.54438801383169,0.611053489482033
121.0,348.216666666667,21633.0,223.662,217.906,5.756,6.98737527921773,0.652415479898576
122.0,351.216666666667,21813.0,223.353,217.661,5.69200000000001,6.91466520000093,0.645626495576125
123.0,354.216666666667,21993.0,225.384,219.926,5.458,6.63514042992884,0.619527097773273
124.0,357.216666666667,22173.0,223.015,217.825,5.19,6.31381217070895,0.589524482761676
125.0,360.216666666667,22353.0,222.955,217.607,5.34800000000001,6.51059755230936,0.607898453536612
126.0,363.216666666667,22533.0,224.859,219.3,5.559,6.77218425249061,0.632322962842908
127.0,366.216666666667,22713.0,224.51,219.264,5.24599999999998,6.39529455724275,0.59713254275408
128.0,369.216666666667,22893.0,222.105,217.083,5.02199999999999,6.12641948250433,0.57202751348222
129.0,372.216666666667,23073.0,224.35,218.331,6.01900000000001,7.34767177316494,0.686056582689131
130.0,375.216666666667,23253.0,222.152,216.102,6.04999999999998,7.39050020693274,0.690055499600468
131.0,378.216666666667,23433.0,221.481,215.866,5.61499999999998,6.86371100679416,0.64086887156347
132.0,381.216666666667,23613.0,221.534,215.544,5.98999999999998,7.32697281254576,0.684123908145955
133.0,384.216666666667,23793.0,220.854,215.531,5.32300000000001,6.51539205190447,0.608346118880066
134.0,387.216666666667,23973.0,222.044,217.043,5.00100000000001,6.12526827380496,0.571920024425736
135.0,390.216666666667,24153.0,222.767,216.969,5.798,7.10605438714081,0.663496620392041
136.0,393.216666666667,24333.0,221.88,216.445,5.435,6.66545566364599,0.622357649584714
137.0,396.216666666667,24513.0,221.477,215.611,5.86600000000001,7.19863736817071,0.672141149644493
138.0,399.216666666667,24693.0,221.523,215.812,5.71099999999998,7.01287893601266,0.654796771846143
139.0,402.216666666667,24873.0,220.846,215.466,5.38,6.61059331537946,0.61723511875699
140.0,405.216666666667,25053.0,218.809,213.039,5.77000000000001,7.09424261822714,0.662393748344051
141.0,408.216666666667,25233.0,220.306,215.321,4.98500000000001,6.13289541541401,0.57263217527699
142.0,411.216666666667,25413.0,220.691,214.877,5.81399999999999,7.15720974278862,0.668273027064173
143.0,414.216666666667,25593.0,220.177,214.424,5.75299999999999,7.08646417355537,0.661667470233801
144.0,417.216666666667,25773.0,220.666,214.287,6.37899999999999,7.86235315286961,0.734112696167621
145.0,420.216666666667,25953.0,218.015,212.858,5.15699999999998,6.3600429967055,0.59384108310492
146.0,423.216666666667,26133.0,218.249,212.662,5.58699999999999,6.89450121327623,0.643743771870875
147.0,426.216666666667,26313.0,218.493,212.422,6.071,7.49624880479794,0.699929310504832
148.0,429.216666666667,26493.0,218.3,212.521,5.77900000000003,7.13993705216646,0.666660265434651
149.0,432.216666666667,26673.0,219.944,214.32,5.624,6.95253702913082,0.649162611297561
150.0,435.216666666667,26853.0,218.266,212.593,5.673,7.01722665649705,0.655202721152276
151.0,438.216666666667,27033.0,220.558,214.544,6.01399999999998,7.44336488772415,0.694991507000957
152.0,441.216666666667,27213.0,220.418,214.523,5.89500000000001,7.30031049805206,0.681634431624298
153.0,444.216666666667,27393.0,218.5,212.359,6.14099999999999,7.60933594251278,0.710488325338632
154.0,447.216666666667,27573.0,218.277,212.318,5.95899999999998,7.3880480963447,0.689826544543364
155.0,450.216666666667,27753.0,218.143,212.044,6.09899999999999,7.5659277154697,0.706435272776522
156.0,453.216666666667,27933.0,217.575,212.673,4.90199999999999,6.08446885554659,0.568110557926665
157.0,456.216666666667,28113.0,218.407,212.63,5.77700000000002,7.1745746142498,0.669894395674704
158.0,459.216666666667,28293.0,218.366,212.499,5.86700000000002,7.29042656110792,0.680711562419909
159.0,462.216666666667,28473.0,219.903,213.939,5.964,7.41508635707811,0.692351123394092
160.0,465.216666666667,28653.0,217.653,212.259,5.39400000000001,6.71011461015219,0.626527482583848
161.0,468.216666666667,28833.0,219.447,213.823,5.624,7.00008705127887,0.653602385787873
162.0,471.216666666667,29013.0,220.289,214.447,5.84199999999998,7.27541136613266,0.679309584532062
163.0,474.216666666667,29193.0,220.0,214.207,5.79300000000001,7.21832059377048,0.673978984391086
164.0,477.216666666667,29373.0,219.776,214.095,5.68100000000001,7.08260223398598,0.661306878587179
165.0,480.216666666667,29553.0,219.805,213.909,5.89600000000002,7.35461211672302,0.68670460678862
166.0,483.216666666667,29733.0,219.742,213.963,5.779,7.212537121502,0.673438978067575
167.0,486.216666666667,29913.0,220.157,213.839,6.31800000000001,7.88945336342475,0.736643059310884
168.0,489.216666666667,30093.0,219.717,213.576,6.14100000000002,7.6725052048287,0.716386477783836
169.0,492.216666666667,30273.0,217.72,211.338,6.38200000000001,7.97782666516651,0.744894528247662
170.0,495.216666666667,30453.0,219.313,213.191,6.12199999999999,7.65684302979931,0.714924090974809
171.0,498.216666666667,30633.0,219.043,213.043,6.0,7.50818962320268,0.701044231982298
172.0,501.216666666667,30813.0,216.765,210.782,5.98299999999998,7.4908225585043,0.699422658587876
173.0,504.216666666667,30993.0,216.895,210.457,6.43800000000002,8.06467713457369,0.753003809403096
174.0,507.216666666667,31173.0,216.33,210.441,5.88900000000001,7.38077683507211,0.68914762245559
175.0,510.216666666667,31353.0,218.267,212.306,5.96099999999998,7.47486181883395,0.697932394616719
176.0,513.216666666667,31533.0,218.204,211.866,6.33799999999999,7.95167913951614,0.742453117873428
177.0,516.216666666667,31713.0,215.932,209.559,6.37299999999999,7.99967151070961,0.74693419476317
178.0,519.216666666667,31893.0,215.96,209.281,6.679,8.38803776832697,0.783196188461069
179.0,522.216666666667,32073.0,218.151,211.989,6.16200000000001,7.74266410873766,0.72293725731604
180.0,525.216666666667,32253.0,215.618,209.578,6.03999999999999,7.5931952201328,0.708981256272403
181.0,528.216666666667,32433.0,218.58,212.443,6.137,7.71901313240057,0.720728951269716
182.0,531.216666666667,32613.0,216.499,210.122,6.37699999999998,8.02489294179465,0.749289135124541
183.0,534.216666666667,32793.0,217.347,211.817,5.53,6.96248537910149,0.650091494785417
184.0,537.216666666667,32973.0,216.942,211.346,5.596,7.04907907113982,0.658176800481735
185.0,540.216666666667,33153.0,215.471,208.979,6.49199999999999,8.18178177360028,0.763937940778023
186.0,543.216666666667,33333.0,215.831,209.259,6.572,8.28668533114004,0.773732849753204
187.0,546.216666666667,33513.0,216.831,210.982,5.84899999999999,7.3786693658624,0.688950846773609
188.0,549.216666666667,33693.0,214.985,208.869,6.11600000000001,7.71927085828474,0.720753015292282
189.0,552.216666666667,33873.0,216.012,208.476,7.536,9.51615090548393,0.888528798253361
190.0,555.216666666667,34053.0,215.324,208.776,6.548,8.27256134088436,0.7724140841921
191.0,558.216666666667,34233.0,217.258,210.143,7.11500000000001,8.99324461063423,0.839704719444966
192.0,561.216666666667,34413.0,215.346,208.318,7.02799999999999,8.88756369357156,0.829837227938301
193.0,564.216666666667,34593.0,216.056,210.184,5.87200000000001,7.42926416177246,0.693674913642067
194.0,567.216666666667,34773.0,216.603,210.193,6.41,8.11382966360334,0.757593210935669
195.0,570.216666666667,34953.0,216.898,210.054,6.84399999999999,8.66732926824065,0.809273805687344
196.0,573.216666666667,35133.0,216.735,210.175,6.56,8.31162460648061,0.776061445061092
197.0,576.216666666667,35313.0,215.101,208.04,7.06100000000001,8.95064719386403,0.835727372731212
198.0,579.216666666667,35493.0,214.711,207.805,6.90600000000001,8.75831016424798,0.81776874728677
199.0,582.216666666667,35673.0,215.539,209.457,6.08199999999999,7.7169390044248,0.720535288679028
200.0,585.216666666667,35853.0,214.108,207.504,6.60400000000001,8.38320367714308,0.782744826426888
201.0,588.216666666667,36033.0,214.198,207.51,6.68800000000002,8.49381754448695,0.793072910501781
202.0,591.216666666667,36213.0,216.153,209.546,6.607,8.39487241148276,0.783834343249704
203.0,594.216666666667,36393.0,216.077,209.097,6.97999999999999,8.8729447388789,0.828472247246653
204.0,597.216666666667,36573.0,216.202,209.538,6.66399999999999,8.47518809399318,0.791333467377796
205.0,600.216666666667,36753.0,215.801,208.68,7.12099999999998,9.06059667669755,0.84599342282026
206.0,603.216666666667,36933.0,213.901,206.172,7.72900000000001,9.8387525808153,0.918650312901843
207.0,606.216666666667,37113.0,215.466,208.837,6.62900000000002,8.44238481308364,0.788270605086644
208.0,609.216666666667,37293.0,215.708,208.153,7.55500000000001,9.62612440877135,0.898797091146801
209.0,612.216666666667,37473.0,214.245,206.596,7.649,9.75036857826491,0.910397844824055
210.0,615.216666666667,37653.0,216.761,208.612,8.149,10.3924887711413,0.970352997803175
