"Frame","Time (aligned)","Time [ s]","Intensity Ch3-T2","background","Intensity (bg-subst)","bleach-Corrected","Normalized"
1.0,-777.883333333333,0.0,275.677,275.658,0.0190000000000055,0.0190000000000055,0.00209156801655545
2.0,-774.883333333333,180.0,273.102,272.002,1.09999999999997,1.10365323680678,0.12149293744591
3.0,-771.883333333333,360.0,272.132,271.188,0.944000000000017,0.950234787101175,0.104604246785191
4.0,-768.883333333333,540.0,270.95,269.773,1.17699999999996,1.18859439146529,0.130843474412909
5.0,-765.883333333333,720.0,269.179,268.957,0.22199999999998,0.224899280214794,0.0247574811286037
6.0,-762.333333333333,933.0,274.079,274.899,-0.819999999999993,-0.833310204255924,-0.0917328932152883
7.0,-759.333333333333,1113.0,271.841,272.134,-0.293000000000006,-0.298674665864299,-0.0328788620251039
8.0,-756.333333333333,1293.0,274.116,273.942,0.173999999999978,0.177909187147011,0.0195846929309452
9.0,-753.333333333333,1473.0,272.001,272.2,-0.199000000000012,-0.204080394544451,-0.022465685580793
10.0,-750.333333333333,1653.0,270.514,270.356,0.158000000000015,0.162511977153246,0.0178897291432011
11.0,-747.333333333333,1833.0,272.555,270.822,1.733,1.78767348377928,0.196791614879785
12.0,-744.333333333333,2013.0,270.097,268.128,1.96899999999999,2.03694002499742,0.224231505680265
13.0,-741.333333333333,2193.0,269.475,267.392,2.08300000000003,2.16095884752087,0.237883811082414
14.0,-738.333333333333,2373.0,271.235,268.96,2.27500000000003,2.36671195813479,0.260533633475401
15.0,-735.333333333333,2553.0,268.712,265.845,2.86699999999996,2.99075485058582,0.329229852149557
16.0,-732.333333333333,2733.0,268.871,266.342,2.529,2.64529233488577,0.291200465372882
17.0,-729.333333333333,2913.0,270.317,268.041,2.27600000000001,2.38699596526817,0.262766548242124
18.0,-726.333333333333,3093.0,266.613,263.085,3.52800000000002,3.70975906696585,0.408379653346849
19.0,-723.333333333333,3273.0,267.851,265.29,2.56099999999998,2.69990063190407,0.297211884714041
20.0,-720.333333333333,3453.0,267.568,264.947,2.62099999999998,2.77019231586858,0.30494977092509
21.0,-717.333333333333,3633.0,264.705,261.956,2.74899999999997,2.91277010747616,0.320645094546009
22.0,-714.333333333333,3813.0,264.576,262.079,2.49700000000001,2.65230033462904,0.291971923695148
23.0,-711.333333333333,3993.0,263.676,261.125,2.55099999999999,2.71626205879896,0.299012991935017
24.0,-708.333333333333,4173.0,264.39,261.816,2.57400000000001,2.7473336517414,0.302433431409849
25.0,-705.333333333333,4353.0,263.387,261.142,2.245,2.40184902344645,0.264401610422847
26.0,-702.333333333333,4533.0,262.778,260.357,2.42099999999999,2.59618551622893,0.285794662673019
27.0,-699.333333333333,4713.0,262.127,259.491,2.63600000000002,2.83323907989125,0.311890118039674
28.0,-696.333333333333,4893.0,261.821,259.416,2.40500000000003,2.59080856219817,0.285202753984744
29.0,-693.333333333333,5073.0,259.998,257.439,2.55899999999997,2.76285900762257,0.304142501820728
30.0,-690.333333333333,5253.0,259.05,256.757,2.29300000000001,2.48111377251979,0.273127274317691
31.0,-687.333333333333,5433.0,257.859,255.558,2.30099999999999,2.49516716876128,0.274674307691516
32.0,-684.333333333333,5613.0,257.428,255.075,2.35300000000001,2.55700628617934,0.281481714015915
33.0,-681.333333333333,5793.0,258.163,255.597,2.566,2.79434492704861,0.307608551401956
34.0,-678.333333333333,5973.0,255.169,252.669,2.5,2.72812163712851,0.300318524288907
35.0,-675.333333333333,6153.0,256.062,253.839,2.22300000000001,2.43080781096394,0.267589466937046
36.0,-672.333333333333,6333.0,255.811,253.235,2.57599999999999,2.82248567514853,0.310706356069731
37.0,-669.333333333333,6513.0,254.706,252.329,2.37699999999998,2.60962011508136,0.28727357726644
38.0,-666.333333333333,6693.0,253.84,251.293,2.547,2.80173447829757,0.30842201187822
39.0,-663.333333333333,6873.0,251.257,248.834,2.423,2.67047959151969,0.293973142236054
40.0,-660.333333333333,7053.0,250.924,248.108,2.816,3.10952760884825,0.342304657540067
41.0,-657.333333333333,7233.0,250.135,247.875,2.25999999999999,2.50025564930207,0.275234460488988
42.0,-654.333333333333,7413.0,249.577,247.34,2.23699999999999,2.47938894651687,0.272937401112332
43.0,-651.333333333333,7593.0,250.693,248.343,2.35000000000002,2.60938352063722,0.287247532352111
44.0,-648.333333333333,7773.0,248.306,246.103,2.203,2.45055690924216,0.269763497585179
45.0,-645.333333333333,7953.0,248.077,245.351,2.726,3.03770391478604,0.334398123785786
46.0,-642.333333333333,8133.0,247.637,245.071,2.566,2.86440728723946,0.315321193072457
47.0,-639.333333333333,8313.0,247.551,244.773,2.77799999999999,3.10640661851049,0.34196109103636
48.0,-636.333333333333,8493.0,246.527,244.21,2.31699999999998,2.59531234058274,0.285698541291208
49.0,-633.333333333333,8673.0,247.705,245.434,2.27100000000001,2.54805053621163,0.280495842426614
50.0,-630.333333333333,8853.0,247.378,244.864,2.51399999999998,2.82535759590972,0.311022504365004
51.0,-627.333333333333,9033.0,247.444,245.105,2.339,2.63296890182887,0.289843870718358
52.0,-624.333333333333,9213.0,247.299,244.719,2.58000000000001,2.90892719759594,0.320222057314641
53.0,-621.333333333333,9393.0,246.774,244.66,2.114,2.38729568583557,0.262799542239634
54.0,-618.333333333333,9573.0,246.614,244.078,2.536,2.86833037694775,0.315753056701928
55.0,-615.333333333333,9753.0,246.434,243.538,2.89599999999999,3.28055968243791,0.361132300430866
56.0,-612.333333333333,9933.0,246.083,243.52,2.56299999999999,2.90775882539054,0.320093439949576
57.0,-609.333333333333,10113.0,244.019,241.246,2.773,3.15072951201634,0.346840267165728
58.0,-606.333333333333,10293.0,244.998,242.461,2.53699999999998,2.8868514152555,0.317791899404973
59.0,-603.333333333333,10473.0,242.745,240.018,2.727,3.10758634756881,0.342090958592496
60.0,-600.333333333333,10653.0,242.107,239.756,2.351,2.68297321679499,0.295348472080088
61.0,-597.333333333333,10833.0,243.656,241.211,2.44499999999999,2.79421550736638,0.307594304556268
62.0,-594.333333333333,11013.0,243.075,240.869,2.20599999999999,2.52461815251785,0.277916346411586
63.0,-591.333333333333,11193.0,242.82,240.383,2.43699999999998,2.792845118038,0.30744344863577
64.0,-588.333333333333,11373.0,242.376,239.72,2.65600000000001,3.04798367567425,0.335529745843239
65.0,-585.333333333333,11553.0,242.393,239.653,2.74000000000001,3.14862270911157,0.346608344977686
66.0,-582.333333333333,11733.0,242.077,239.481,2.596,2.98711973145559,0.328829689049075
67.0,-579.333333333333,11913.0,240.36,237.911,2.44900000000001,2.82167591089901,0.310617215174718
68.0,-576.333333333333,12093.0,241.887,239.681,2.20599999999999,2.54499485859758,0.280159465712591
69.0,-573.333333333333,12273.0,239.891,237.38,2.511,2.90057401652406,0.319302518032198
70.0,-570.333333333333,12453.0,241.259,238.941,2.31799999999998,2.68101608495412,0.295133026061007
71.0,-567.333333333333,12633.0,241.241,238.375,2.86600000000001,3.31897482454569,0.365361136356343
72.0,-564.333333333333,12813.0,239.101,236.121,2.97999999999999,3.45524605378952,0.380362217654396
73.0,-561.333333333333,12993.0,238.522,235.576,2.946,3.4199809144834,0.376480141997973
74.0,-558.333333333333,13173.0,238.114,235.587,2.52700000000002,2.93709373417708,0.323322700843601
75.0,-555.333333333333,13353.0,239.45,237.051,2.399,2.79163063792129,0.307309755595304
76.0,-552.333333333333,13533.0,238.949,236.643,2.30600000000001,2.68655532337147,0.29574279942468
77.0,-549.333333333333,13713.0,237.042,234.252,2.78999999999999,3.25419230544863,0.358229712936592
78.0,-546.333333333333,13893.0,236.949,234.143,2.80600000000001,3.27659725109337,0.360696105974654
79.0,-543.333333333333,14073.0,237.63,235.463,2.167,2.5332885649115,0.278870807319633
80.0,-540.333333333333,14253.0,237.392,235.017,2.375,2.77954557655634,0.305979401499039
81.0,-537.333333333333,14433.0,235.426,232.848,2.57799999999997,3.02045046791029,0.332498820751015
82.0,-534.333333333333,14613.0,235.372,232.968,2.40400000000002,2.81965632970538,0.310394894573063
83.0,-531.333333333333,14793.0,234.797,232.366,2.43099999999998,2.85439437243024,0.314218946105749
84.0,-528.333333333333,14973.0,234.375,231.764,2.61099999999999,3.06900564252144,0.337843897080221
85.0,-525.333333333333,15153.0,235.933,232.961,2.97199999999998,3.49700305675212,0.384958934068277
86.0,-522.333333333333,15333.0,233.947,231.397,2.55000000000001,3.00357493421717,0.330641119354446
87.0,-519.333333333333,15513.0,233.334,230.952,2.382,2.80857432142646,0.309174959095412
88.0,-516.333333333333,15693.0,232.956,230.734,2.22199999999998,2.62258138595375,0.288700386719629
89.0,-513.333333333333,15873.0,232.868,230.144,2.72399999999999,3.21830911885245,0.354279601072558
90.0,-510.333333333333,16053.0,233.984,231.825,2.15900000000002,2.55331323095306,0.281075173163565
91.0,-507.333333333333,16233.0,232.272,229.859,2.41299999999998,2.85650332680817,0.314451105133394
92.0,-504.333333333333,16413.0,231.846,229.484,2.36199999999999,2.79884282901901,0.308103691817897
93.0,-501.333333333333,16593.0,231.53,228.971,2.559,3.03518692454499,0.334121047139146
94.0,-498.333333333333,16773.0,231.248,228.507,2.74099999999999,3.2541393776209,0.358223886507557
95.0,-495.333333333333,16953.0,230.997,228.063,2.93400000000003,3.48654026451062,0.3838071634569
96.0,-492.333333333333,17133.0,230.698,228.232,2.46600000000001,2.93312582786778,0.322885903689432
97.0,-489.333333333333,17313.0,230.633,227.791,2.84200000000001,3.38345502842506,0.372459280152923
98.0,-486.333333333333,17493.0,232.359,229.284,3.07500000000002,3.66417252645583,0.403361371761789
99.0,-483.333333333333,17673.0,230.449,227.426,3.02300000000002,3.60544790608188,0.396896817142921
100.0,-480.333333333333,17853.0,229.973,227.174,2.79900000000001,3.34125915407698,0.367814251667816
101.0,-477.333333333333,18033.0,229.408,226.943,2.46499999999997,2.94514274691366,0.324208756507005
102.0,-474.333333333333,18213.0,231.913,228.587,3.32600000000002,3.9773140513847,0.43783278219318
103.0,-471.333333333333,18393.0,229.409,226.524,2.88499999999999,3.45293017026569,0.380107279343421
104.0,-468.333333333333,18573.0,231.048,228.545,2.50300000000001,2.99828810816518,0.330059132181844
105.0,-465.333333333333,18753.0,231.047,228.53,2.517,3.01760596392237,0.332185690563431
106.0,-462.333333333333,18933.0,230.854,227.851,3.00300000000001,3.60327810738587,0.396657960218977
107.0,-459.333333333333,19113.0,229.261,226.379,2.882,3.46095512391172,0.380990686521336
108.0,-456.333333333333,19293.0,230.74,227.73,3.01000000000002,3.61763293274985,0.398238175672373
109.0,-453.333333333333,19473.0,228.86,226.026,2.834,3.40886966282736,0.375256987335464
110.0,-450.333333333333,19653.0,228.027,225.564,2.46299999999999,2.96499599090516,0.326394251778452
111.0,-447.333333333333,19833.0,230.23,227.043,3.18699999999998,3.83961406709093,0.422674419928498
112.0,-444.333333333333,20013.0,228.126,225.26,2.86600000000001,3.45560612218744,0.380401854893598
113.0,-441.333333333333,20193.0,229.675,226.446,3.22900000000001,3.89632718726183,0.428917543521576
114.0,-438.333333333333,20373.0,227.85,224.773,3.077,3.71578897895592,0.409043441297431
115.0,-435.333333333333,20553.0,227.38,224.664,2.71600000000001,3.2823613470332,0.361330632222659
116.0,-432.333333333333,20733.0,229.235,226.169,3.066,3.708163002777,0.408203954567388
117.0,-429.333333333333,20913.0,227.192,224.343,2.84900000000002,3.44830901597852,0.379598571000968
118.0,-426.333333333333,21093.0,228.811,225.972,2.839,3.43877103242228,0.378548605666829
119.0,-423.333333333333,21273.0,227.113,224.086,3.02699999999999,3.66920146194381,0.403914969689367
120.0,-420.333333333333,21453.0,227.046,223.835,3.21099999999998,3.89509358895522,0.428781745902451
121.0,-417.333333333333,21633.0,226.469,223.47,2.999,3.64057304766746,0.400763481496467
122.0,-414.333333333333,21813.0,226.422,223.412,3.00999999999999,3.65656047997236,0.402523418447823
123.0,-411.333333333333,21993.0,226.067,223.068,2.999,3.64580178625074,0.401339074253715
124.0,-408.333333333333,22173.0,227.257,224.284,2.97300000000001,3.61675598911711,0.398141639501081
125.0,-405.333333333333,22353.0,227.044,223.887,3.15700000000001,3.8432977697533,0.423079931226978
126.0,-402.333333333333,22533.0,226.607,224.124,2.483,3.02488460135532,0.332986941366529
127.0,-399.333333333333,22713.0,226.96,223.69,3.27000000000001,3.98639214681356,0.438832121880034
128.0,-396.333333333333,22893.0,226.631,223.686,2.94499999999999,3.59265340023402,0.395488365605079
129.0,-393.333333333333,23073.0,226.752,223.684,3.06800000000001,3.74524954312512,0.412286534653535
130.0,-390.333333333333,23253.0,226.324,223.127,3.197,3.90536019199406,0.429911919510593
131.0,-387.333333333333,23433.0,224.09,221.199,2.89099999999999,3.53392493689082,0.389023387942444
132.0,-384.333333333333,23613.0,223.945,220.847,3.09799999999998,3.78947608902616,0.417155104595078
133.0,-381.333333333333,23793.0,225.651,222.376,3.27500000000001,4.00862464211669,0.441279531148679
134.0,-378.333333333333,23973.0,225.283,221.995,3.28799999999998,4.02717098265758,0.443321159185493
135.0,-375.333333333333,24153.0,224.636,221.517,3.119,3.82266016445191,0.420808091480311
136.0,-372.333333333333,24333.0,222.826,219.434,3.392,4.15993111519543,0.457935730084953
137.0,-369.333333333333,24513.0,222.357,219.328,3.029,3.717127955709,0.409190839242255
138.0,-366.333333333333,24693.0,224.238,220.963,3.27500000000001,4.02156864217152,0.442704439386624
139.0,-363.333333333333,24873.0,224.852,221.213,3.63900000000001,4.47136599900854,0.49221926914932
140.0,-360.333333333333,25053.0,222.122,218.931,3.191,3.92334977378904,0.431892258137624
141.0,-357.333333333333,25233.0,222.309,218.956,3.35300000000001,4.12509495042792,0.454100877029839
142.0,-354.333333333333,25413.0,223.624,220.197,3.42699999999999,4.21874058970357,0.464409625661354
143.0,-351.333333333333,25593.0,223.139,219.853,3.286,4.04764840505875,0.445575365593691
144.0,-348.333333333333,25773.0,221.008,217.853,3.155,3.88865405193662,0.428072865393528
145.0,-345.333333333333,25953.0,222.834,219.431,3.40299999999999,4.19686374205717,0.462001366985552
146.0,-342.333333333333,26133.0,220.692,217.468,3.22400000000002,3.97849864177604,0.43796318489714
147.0,-339.333333333333,26313.0,222.637,219.102,3.535,4.36488873743382,0.480497983107212
148.0,-336.333333333333,26493.0,220.91,217.437,3.47299999999998,4.29088101439244,0.472351025923455
149.0,-333.333333333333,26673.0,220.636,217.22,3.416,4.22294923391019,0.464872923851649
150.0,-330.333333333333,26853.0,222.436,218.813,3.62300000000002,4.48147579349355,0.493332180875572
151.0,-327.333333333333,27033.0,220.537,216.798,3.739,4.62765901483218,0.509424399312879
152.0,-324.333333333333,27213.0,222.172,218.526,3.64599999999999,4.51517083560605,0.497041416264992
153.0,-321.333333333333,27393.0,222.213,218.77,3.44299999999998,4.26623410683462,0.469637832052144
154.0,-318.333333333333,27573.0,222.186,218.651,3.535,4.3827403961367,0.482463138811708
155.0,-315.333333333333,27753.0,220.216,216.782,3.434,4.25994356040711,0.468945352804016
156.0,-312.333333333333,27933.0,220.294,217.062,3.232,4.01162858856113,0.441610213164817
157.0,-309.333333333333,28113.0,220.034,216.609,3.42499999999998,4.25357764476465,0.468244576722234
158.0,-306.333333333333,28293.0,220.183,216.471,3.71199999999999,4.61258963607166,0.507765524015781
159.0,-303.333333333333,28473.0,219.851,216.22,3.631,4.51444979251352,0.496962042019155
160.0,-300.333333333333,28653.0,221.199,217.953,3.24600000000001,4.03801112802263,0.444514469782352
161.0,-297.333333333333,28833.0,219.709,216.133,3.57599999999999,4.45097996005925,0.489975122462447
162.0,-294.333333333333,29013.0,221.486,217.935,3.55099999999999,4.42228445072527,0.486816248276042
163.0,-291.333333333333,29193.0,221.325,217.856,3.46899999999999,4.32251927149831,0.475833845221465
164.0,-288.333333333333,29373.0,221.552,217.413,4.13899999999998,5.16016381736803,0.568043873715292
165.0,-285.333333333333,29553.0,219.551,215.856,3.69499999999999,4.60910647409963,0.507382088743299
166.0,-282.333333333333,29733.0,219.434,215.989,3.44499999999999,4.29956573517466,0.473307061935076
167.0,-279.333333333333,29913.0,219.545,215.483,4.06199999999998,5.07232661637087,0.558374532648483
168.0,-276.333333333333,30093.0,219.569,215.444,4.125,5.15373456601828,0.56733612547879
169.0,-273.333333333333,30273.0,219.059,215.259,3.80000000000001,4.75019450448649,0.522913415684134
170.0,-270.333333333333,30453.0,219.208,215.564,3.64400000000001,4.55758510300373,0.501710486008917
171.0,-267.333333333333,30633.0,218.884,215.29,3.59399999999999,4.4974055842984,0.495085772504932
172.0,-264.333333333333,30813.0,220.69,216.734,3.95599999999999,4.95298245720258,0.545236826002219
173.0,-261.333333333333,30993.0,219.048,214.747,4.30099999999999,5.38772543581877,0.593094431765135
174.0,-258.333333333333,31173.0,218.576,214.742,3.834,4.80521283505968,0.528969972555245
175.0,-255.333333333333,31353.0,219.745,215.945,3.80000000000001,4.7650519898623,0.524548965221949
176.0,-252.333333333333,31533.0,219.705,215.824,3.881,4.86911750401738,0.536004760013164
177.0,-249.333333333333,31713.0,219.623,215.526,4.09699999999998,5.14273563147296,0.566125334967675
178.0,-246.333333333333,31893.0,219.268,215.415,3.85300000000001,4.83891443649706,0.532679930011725
179.0,-243.333333333333,32073.0,217.611,213.457,4.154,5.21957590193057,0.57458410612939
180.0,-240.333333333333,32253.0,217.481,213.257,4.22399999999999,5.3102080479869,0.584561121811661
181.0,-237.333333333333,32433.0,217.012,213.188,3.82400000000001,4.80976148253216,0.5294706991643
182.0,-234.333333333333,32613.0,219.643,215.71,3.93299999999999,4.94933416027574,0.544835212256583
183.0,-231.333333333333,32793.0,219.187,215.454,3.733,4.69999239063036,0.517387040120717
184.0,-228.333333333333,32973.0,219.315,214.659,4.65600000000001,5.86499502416494,0.645633474199827
185.0,-225.333333333333,33153.0,217.211,213.158,4.05300000000003,5.10794231799171,0.562295199090447
186.0,-222.333333333333,33333.0,218.868,214.927,3.941,4.96923720176855,0.547026189362821
187.0,-219.333333333333,33513.0,217.587,213.11,4.47699999999998,5.64785480440517,0.62173013005471
188.0,-216.333333333333,33693.0,217.027,213.168,3.85899999999998,4.87061253141278,0.536169336407064
189.0,-213.333333333333,33873.0,217.128,212.884,4.244,5.35914867872529,0.589948630125473
190.0,-210.333333333333,34053.0,216.804,212.767,4.03700000000001,5.10023367946704,0.56144661268048
191.0,-207.333333333333,34233.0,216.978,212.475,4.50300000000001,5.6917189714246,0.626558808413165
192.0,-204.333333333333,34413.0,216.827,212.542,4.285,5.41878349842831,0.596513381786728
193.0,-201.333333333333,34593.0,218.364,214.181,4.18299999999999,5.29233855393291,0.582594002746643
194.0,-198.333333333333,34773.0,218.248,213.941,4.30699999999999,5.45183531375031,0.600151809145495
195.0,-195.333333333333,34953.0,218.183,214.137,4.04599999999999,5.12390622725038,0.564052546565427
196.0,-192.333333333333,35133.0,218.151,213.903,4.24800000000002,5.38228373907466,0.592495396035358
197.0,-189.333333333333,35313.0,218.105,213.866,4.23899999999998,5.37343059832735,0.59152081992835
198.0,-186.333333333333,35493.0,216.402,212.079,4.32299999999998,5.48250432088674,0.603527930957392
199.0,-183.333333333333,35673.0,216.088,211.336,4.75199999999998,6.02941370421351,0.66373309801634
200.0,-180.333333333333,35853.0,217.586,213.408,4.17800000000003,5.30360765643609,0.583834534029323
201.0,-177.333333333333,36033.0,215.828,211.036,4.792,6.08588123103788,0.669949186073173
202.0,-174.333333333333,36213.0,215.885,211.405,4.47999999999999,5.6923003486367,0.626622807885923
203.0,-171.333333333333,36393.0,215.818,211.233,4.58500000000001,5.82843146529511,0.641608465236482
204.0,-168.333333333333,36573.0,217.511,213.033,4.47800000000001,5.69506186748223,0.626926802859314
205.0,-165.333333333333,36753.0,215.239,210.84,4.399,5.5971864598782,0.616152430640794
206.0,-162.333333333333,36933.0,217.264,212.76,4.50400000000002,5.73343791227743,0.631151334853814
207.0,-159.333333333333,37113.0,217.196,212.607,4.589,5.84433608496616,0.643359285963821
