"Frame","Time (aligned)","Time [ s]","Intensity Ch3-T2","background","Intensity (bg-subst)","bleach-Corrected","Normalized"
1.0,-12.3333333333333,0.0,281.284,270.372,10.912,10.912,0.998928123563708
2.0,-9.33333333333333,180.0,278.91,267.727,11.1830000000001,11.2201401338278,1.02713650384957
3.0,-6.33333333333333,360.0,277.822,266.883,10.939,11.0112482373936,1.00801370416732
4.0,-3.33333333333333,540.0,276.153,265.833,10.32,10.4216602548192,0.954040462130224
5.0,-0.333333333333333,720.0,274.777,263.866,10.911,11.0534957046119,1.01188120628917
6.0,3.21666666666667,933.0,281.144,269.328,11.816,12.0077967969367,1.09924174509699
7.0,6.21666666666667,1113.0,278.774,267.098,11.676,11.902134466319,1.08956899274588
8.0,9.21666666666667,1293.0,280.319,269.467,10.852,11.0958074650552,1.01575459407
9.0,12.2166666666667,1473.0,273.938,266.965,6.97300000000001,7.15101804602196,0.654632793097777
10.0,15.2166666666667,1653.0,268.825,265.715,3.11000000000001,3.19881170219334,0.292832017165105
11.0,18.2166666666667,1833.0,268.947,267.71,1.23700000000002,1.27602544687536,0.116812472989988
12.0,21.2166666666667,2013.0,265.984,265.124,0.859999999999957,0.889674160232451,0.0814443309626211
13.0,24.2166666666667,2193.0,265.967,264.996,0.971000000000004,1.00734087419239,0.0922160125775319
14.0,27.2166666666667,2373.0,267.874,266.44,1.43400000000003,1.49180876833639,0.13656614128209
15.0,30.2166666666667,2553.0,264.648,263.372,1.27600000000001,1.33107889408706,0.121852285739153
16.0,33.2166666666667,2733.0,265.634,264.049,1.58500000000004,1.6578838872258,0.151769321898183
17.0,36.2166666666667,2913.0,266.986,265.406,1.57999999999998,1.65705343810354,0.151693299264073
18.0,39.2166666666667,3093.0,262.797,261.565,1.23200000000003,1.29547142021032,0.118592635165058
19.0,42.2166666666667,3273.0,264.496,263.241,1.255,1.32306727568904,0.121118870147782
20.0,45.2166666666667,3453.0,263.878,263.235,0.642999999999972,0.679600785617486,0.0622133740422744
21.0,48.2166666666667,3633.0,261.125,259.881,1.24400000000003,1.31811059065132,0.120665115374704
22.0,51.2166666666667,3813.0,260.811,259.916,0.894999999999982,0.950664316977545,0.0870276138468983
23.0,54.2166666666667,3993.0,259.994,258.981,1.01300000000003,1.07862542750429,0.0987416856969361
24.0,57.2166666666667,4173.0,260.822,259.837,0.985000000000014,1.05133008817611,0.0962429611645737
25.0,60.2166666666667,4353.0,259.927,259.171,0.756000000000029,0.808818646648367,0.0740424938599516
26.0,63.2166666666667,4533.0,259.352,258.063,1.28899999999999,1.38227308154443,0.126538806414938
27.0,66.2166666666667,4713.0,258.703,257.683,1.01999999999998,1.09632164699886,0.100361668407152
28.0,69.2166666666667,4893.0,258.33,257.309,1.02099999999996,1.09988172224706,0.100687571934227
29.0,72.2166666666667,5073.0,256.316,254.919,1.39699999999996,1.50828997016361,0.13807489641546
30.0,75.2166666666667,5253.0,255.459,254.411,1.048,1.13397611583111,0.103808709086623
31.0,78.2166666666667,5433.0,254.46,253.513,0.947000000000003,1.02691147710428,0.094007583842542
32.0,81.2166666666667,5613.0,254.099,253.088,1.011,1.09865420965886,0.100575200522351
33.0,84.2166666666667,5793.0,255.205,253.734,1.471,1.60190233347175,0.146644546564082
34.0,87.2166666666667,5973.0,251.792,250.237,1.55500000000001,1.69689165829394,0.155340249276986
35.0,90.2166666666667,6153.0,252.826,251.729,1.09699999999998,1.19954843393044,0.10981146134805
36.0,93.2166666666667,6333.0,252.412,250.852,1.56,1.70926927532288,0.156473345845251
37.0,96.2166666666667,6513.0,251.446,250.117,1.32900000000001,1.459059795096,0.133568169289085
38.0,99.2166666666667,6693.0,250.512,249.1,1.41200000000001,1.55321911399929,0.142187889940487
39.0,102.216666666667,6873.0,248.492,246.795,1.697,1.87032763797314,0.171217272530228
40.0,105.216666666667,7053.0,247.444,246.408,1.036,1.14398814018707,0.104725249840195
41.0,108.216666666667,7233.0,246.903,245.496,1.40699999999998,1.55657508786194,0.142495109210405
42.0,111.216666666667,7413.0,246.171,245.248,0.923000000000002,1.02301117462453,0.0936505345539216
43.0,114.216666666667,7593.0,247.914,246.675,1.23899999999998,1.3757558221572,0.125942190424243
44.0,117.216666666667,7773.0,245.476,243.719,1.75700000000001,1.95443871517861,0.178917136947731
45.0,120.216666666667,7953.0,244.681,243.133,1.548,1.72500574471342,0.157913925192742
46.0,123.216666666667,8133.0,244.571,243.032,1.53899999999999,1.71797459667244,0.157270265779337
47.0,126.216666666667,8313.0,244.088,242.585,1.50299999999999,1.68068003874055,0.153856172783181
48.0,129.216666666667,8493.0,243.741,242.265,1.47600000000003,1.6532934892966,0.151349098512019
49.0,132.216666666667,8673.0,244.63,243.301,1.32900000000001,1.49113129133653,0.136504122327889
50.0,135.216666666667,8853.0,243.843,243.157,0.685999999999979,0.770960744150367,0.070576830049066
51.0,138.216666666667,9033.0,244.474,243.022,1.452,1.63448945936533,0.149627702403636
52.0,141.216666666667,9213.0,243.816,242.965,0.850999999999999,0.95949497874191,0.0878360079438653
53.0,144.216666666667,9393.0,243.714,242.368,1.346,1.52000945749039,0.139147745158538
54.0,147.216666666667,9573.0,243.48,242.3,1.17999999999998,1.33463321955768,0.122177662908591
55.0,150.216666666667,9753.0,242.97,242.153,0.817000000000007,0.925489385549656,0.0847229999344986
56.0,153.216666666667,9933.0,243.033,241.541,1.49199999999999,1.69269456398075,0.154956030476887
57.0,156.216666666667,10113.0,240.73,239.415,1.315,1.49412524641236,0.136778200950134
58.0,159.216666666667,10293.0,242.013,240.762,1.251,1.42351246373066,0.130314024401028
59.0,162.216666666667,10473.0,239.264,238.361,0.90300000000002,1.02902474215427,0.0942010405774191
60.0,165.216666666667,10653.0,239.357,237.882,1.47499999999999,1.68327753924823,0.154093958368601
61.0,168.216666666667,10833.0,240.968,239.511,1.45699999999999,1.66510102013612,0.152430007110392
62.0,171.216666666667,11013.0,240.349,239.256,1.09299999999999,1.25086475099819,0.114509162256837
63.0,174.216666666667,11193.0,239.978,238.524,1.45400000000001,1.66630972573956,0.152540656855661
64.0,177.216666666667,11373.0,239.077,238.251,0.825999999999993,0.947904561787239,0.0867749748188789
65.0,180.216666666667,11553.0,239.632,238.371,1.261,1.44905592561667,0.132652375065536
66.0,183.216666666667,11733.0,238.974,237.981,0.992999999999995,1.14260781715539,0.104598889549144
67.0,186.216666666667,11913.0,237.931,236.041,1.89000000000001,2.17761023748434,0.199347150694956
68.0,189.216666666667,12093.0,238.981,237.686,1.29499999999999,1.49400196821571,0.13676691557095
69.0,192.216666666667,12273.0,236.868,235.54,1.328,1.534035162861,0.140431714325283
70.0,195.216666666667,12453.0,238.514,237.084,1.43000000000001,1.6539486632806,0.151409075758944
71.0,198.216666666667,12633.0,238.044,236.91,1.13400000000001,1.31323009456903,0.120218335243332
72.0,201.216666666667,12813.0,235.886,234.72,1.166,1.35195197943577,0.12376309145583
73.0,204.216666666667,12993.0,235.423,233.999,1.42400000000001,1.65310686429884,0.1513320141133
74.0,207.216666666667,13173.0,234.73,233.725,1.005,1.16809624172851,0.106932201877903
75.0,210.216666666667,13353.0,236.759,235.37,1.38899999999998,1.61632970240626,0.147965285619957
76.0,213.216666666667,13533.0,236.053,234.646,1.40700000000001,1.63919485688797,0.150058453312535
77.0,216.216666666667,13713.0,234.096,232.498,1.59800000000001,1.86387071831791,0.170626180279935
78.0,219.216666666667,13893.0,233.462,232.288,1.17399999999998,1.37089279144103,0.125497009142339
79.0,222.216666666667,14073.0,235.102,233.941,1.161,1.35724412730146,0.124247555837895
80.0,225.216666666667,14253.0,234.636,233.354,1.28199999999998,1.5003694438506,0.137349819757882
81.0,228.216666666667,14433.0,232.169,231.211,0.957999999999998,1.12241720258265,0.102750559936906
82.0,231.216666666667,14613.0,232.303,231.073,1.22999999999999,1.44266941994075,0.132067728792536
83.0,234.216666666667,14793.0,232.408,230.505,1.90299999999999,2.23443541371236,0.204549154604472
84.0,237.216666666667,14973.0,231.679,230.425,1.25399999999999,1.47396900640439,0.134933018123039
85.0,240.216666666667,15153.0,232.801,231.533,1.268,1.49199188289425,0.1365829043211
86.0,243.216666666667,15333.0,230.626,229.523,1.10300000000001,1.29919339311433,0.11893335945107
87.0,246.216666666667,15513.0,230.971,229.225,1.74600000000001,2.05867790311109,0.188459609125443
88.0,249.216666666667,15693.0,230.059,228.97,1.089,1.28532454064071,0.117663749225862
89.0,252.216666666667,15873.0,229.869,228.402,1.46700000000001,1.73320832502078,0.158664822201064
90.0,255.216666666667,16053.0,231.034,230.155,0.878999999999991,1.03953790180995,0.0951634572606647
91.0,258.216666666667,16233.0,228.746,227.972,0.774000000000001,0.916259251947592,0.0838780365877838
92.0,261.216666666667,16413.0,228.764,227.445,1.31900000000002,1.56294398453689,0.143078143485028
93.0,264.216666666667,16593.0,228.845,227.294,1.55099999999999,1.83961505274297,0.168405719640404
94.0,267.216666666667,16773.0,228.417,226.906,1.511,1.79387252812302,0.164218265985192
95.0,270.216666666667,16953.0,227.704,226.591,1.113,1.32260371997283,0.121076434403486
96.0,273.216666666667,17133.0,228.116,226.376,1.74000000000001,2.0696021656488,0.189459659810754
97.0,276.216666666667,17313.0,227.496,226.37,1.126,1.34052440605441,0.122716965682852
98.0,279.216666666667,17493.0,228.691,227.477,1.214,1.44660339743654,0.132427860826811
99.0,282.216666666667,17673.0,227.164,226.056,1.10799999999998,1.32148074096547,0.120973632413693
100.0,285.216666666667,17853.0,227.145,225.954,1.191,1.42173621025569,0.130151419053638
101.0,288.216666666667,18033.0,226.171,225.242,0.929000000000002,1.10995440644334,0.101609665732195
102.0,291.216666666667,18213.0,228.377,227.089,1.28800000000001,1.54022263926142,0.140998140662368
103.0,294.216666666667,18393.0,226.08,225.373,0.707000000000022,0.846177341552141,0.0774624582110345
104.0,297.216666666667,18573.0,228.1,226.893,1.20699999999999,1.44583849243122,0.132357838363315
105.0,300.216666666667,18753.0,228.023,226.752,1.27099999999999,1.52378910613639,0.139493749312651
106.0,303.216666666667,18933.0,227.62,226.751,0.869,1.04270685158785,0.0954535555978439
107.0,306.216666666667,19113.0,225.625,224.882,0.742999999999995,0.892258729030669,0.0816809327276344
108.0,309.216666666667,19293.0,227.635,226.6,1.035,1.24393690544719,0.113874959566534
109.0,312.216666666667,19473.0,225.524,224.786,0.738,0.887701415372825,0.0812637380079935
110.0,315.216666666667,19653.0,225.341,224.345,0.996000000000009,1.19899959680941,0.109761218602866
111.0,318.216666666667,19833.0,226.717,225.795,0.922000000000025,1.11080143390585,0.101687206013879
112.0,321.216666666667,20013.0,224.598,223.722,0.876000000000005,1.05621457188981,0.0966901063396752
113.0,324.216666666667,20193.0,225.952,225.476,0.475999999999999,0.574373410076376,0.0525804392185194
114.0,327.216666666667,20373.0,224.326,223.286,1.03999999999999,1.25590527725516,0.114970592190456
115.0,330.216666666667,20553.0,224.658,223.318,1.33999999999998,1.61942717416215,0.148248840573119
116.0,333.216666666667,20733.0,225.945,225.019,0.925999999999988,1.11994746920139,0.102524470665256
117.0,336.216666666667,20913.0,224.031,222.904,1.12700000000001,1.36407309968684,0.124872707283166
118.0,339.216666666667,21093.0,225.677,224.728,0.948999999999984,1.14948704113022,0.105228641225899
119.0,342.216666666667,21273.0,223.509,222.724,0.784999999999997,0.95154382148196,0.087108127206893
120.0,345.216666666667,21453.0,223.581,222.532,1.04899999999998,1.27248619583119,0.116488475793839
121.0,348.216666666667,21633.0,223.376,222.417,0.959000000000003,1.16415790353889,0.106571670648274
122.0,351.216666666667,21813.0,222.391,222.083,0.307999999999993,0.37415967702042,0.0342520733210422
123.0,354.216666666667,21993.0,222.389,221.597,0.792000000000002,0.962812609106569,0.0881397170966188
124.0,357.216666666667,22173.0,223.851,223.083,0.768000000000001,0.934298217168493,0.0855293956126322
125.0,360.216666666667,22353.0,223.323,222.732,0.591000000000008,0.719477029434345,0.0658638048900332
126.0,363.216666666667,22533.0,223.169,222.667,0.50200000000001,0.611555404704147,0.0559842277196076
127.0,366.216666666667,22713.0,223.209,222.271,0.938000000000017,1.14349719685357,0.104680306923873
128.0,369.216666666667,22893.0,223.284,222.229,1.05499999999998,1.28701165950656,0.117818194834632
129.0,372.216666666667,23073.0,223.346,222.365,0.980999999999995,1.19755208663811,0.109628707732332
130.0,375.216666666667,23253.0,222.449,221.87,0.579000000000008,0.707289193357707,0.0647480816291884
131.0,378.216666666667,23433.0,220.574,219.792,0.782000000000011,0.955907748408393,0.0875076185316722
132.0,381.216666666667,23613.0,220.087,219.513,0.573999999999984,0.702117261168808,0.0642746222709905
133.0,384.216666666667,23793.0,221.805,220.884,0.921000000000021,1.12731092988994,0.103198551307535
134.0,387.216666666667,23973.0,221.298,220.565,0.733000000000004,0.897784771985414,0.082186808801637
135.0,390.216666666667,24153.0,220.979,220.277,0.702000000000027,0.86037429799466,0.0787621043858366
136.0,393.216666666667,24333.0,218.932,218.395,0.536999999999978,0.658574000253495,0.0602884980114617
137.0,396.216666666667,24513.0,218.924,217.997,0.926999999999993,1.13759577911595,0.104140067540899
138.0,399.216666666667,24693.0,220.439,220.18,0.258999999999986,0.318041611701486,0.0291148011723005
139.0,402.216666666667,24873.0,220.631,220.005,0.626000000000005,0.769187995432635,0.0704145455411706
140.0,405.216666666667,25053.0,218.957,218.04,0.917000000000002,1.12745588923991,0.103211821466209
141.0,408.216666666667,25233.0,218.398,217.784,0.614000000000004,0.75538571415531,0.0691510295095305
142.0,411.216666666667,25413.0,219.923,219.155,0.768000000000001,0.94543121473369,0.0865485547372144
143.0,414.216666666667,25593.0,219.525,218.798,0.727000000000004,0.895508335507525,0.0819784147016306
144.0,417.216666666667,25773.0,217.76,216.449,1.31099999999998,1.61585593093148,0.147921914684263
145.0,420.216666666667,25953.0,218.892,218.158,0.734000000000009,0.905230087178963,0.0828683827326883
146.0,423.216666666667,26133.0,217.187,216.055,1.13200000000001,1.39691701690151,0.127879370827313
147.0,426.216666666667,26313.0,218.354,217.923,0.431000000000012,0.532183039839895,0.0487181639827435
148.0,429.216666666667,26493.0,216.897,216.101,0.795999999999992,0.983455596733764,0.0900294587475704
149.0,432.216666666667,26673.0,216.662,216.098,0.563999999999993,0.697231665083524,0.0638273752649455
150.0,435.216666666667,26853.0,218.323,217.248,1.07500000000002,1.32972301352625,0.121728163009647
151.0,438.216666666667,27033.0,212.922,215.093,-2.17099999999999,-2.68698789013121,-0.245977618321773
152.0,441.216666666667,27213.0,212.605,215.301,-2.696,-3.33870010224738,-0.305637960802781
153.0,444.216666666667,27393.0,210.504,213.712,-3.208,-3.97504473271145,-0.363891493395276
154.0,447.216666666667,27573.0,210.562,213.371,-2.809,-3.4826358621635,-0.318814415950025
155.0,450.216666666667,27753.0,210.118,213.177,-3.059,-3.7947487918711,-0.347386481860287
156.0,453.216666666667,27933.0,210.215,212.487,-2.27199999999999,-2.82005574047365,-0.258159181559422
157.0,456.216666666667,28113.0,210.185,213.192,-3.007,-3.73445488403135,-0.341866936385518
158.0,459.216666666667,28293.0,210.587,212.979,-2.39200000000002,-2.97233685600311,-0.272099603937541
159.0,462.216666666667,28473.0,212.07,214.792,-2.72200000000001,-3.38428320992064,-0.309810820793089
160.0,465.216666666667,28653.0,209.745,212.63,-2.88499999999999,-3.58892855956414,-0.328544874597656
161.0,468.216666666667,28833.0,211.713,214.308,-2.595,-3.22994770591548,-0.295682331477187
162.0,471.216666666667,29013.0,212.463,214.88,-2.417,-3.01004266893918,-0.275551344861631
163.0,474.216666666667,29193.0,212.224,214.716,-2.49200000000002,-3.10513635761715,-0.284256601459306
164.0,477.216666666667,29373.0,212.036,214.532,-2.49600000000001,-3.1118069311792,-0.284867252442759
165.0,480.216666666667,29553.0,211.879,214.219,-2.34,-2.91889286857731,-0.267207127574361
166.0,483.216666666667,29733.0,211.269,214.304,-3.035,-3.78786125000148,-0.346755968730175
167.0,486.216666666667,29913.0,211.488,213.882,-2.39400000000001,-2.98945098955981,-0.273666300172897
168.0,489.216666666667,30093.0,210.471,213.406,-2.935,-3.66696023060937,-0.335688205860096
169.0,492.216666666667,30273.0,209.129,211.278,-2.149,-2.68635999740564,-0.245920138510358
170.0,495.216666666667,30453.0,210.888,213.534,-2.64599999999999,-3.30937710827327,-0.302953616654335
171.0,498.216666666667,30633.0,210.88,213.498,-2.61799999999999,-3.27607340559076,-0.299904862509508
172.0,501.216666666667,30813.0,208.89,211.446,-2.55600000000001,-3.20015752290442,-0.292955218975733
173.0,504.216666666667,30993.0,208.134,211.067,-2.93300000000002,-3.67407549482832,-0.336339565604863
174.0,507.216666666667,31173.0,207.98,211.313,-3.333,-4.17730161169898,-0.382406897043083
175.0,510.216666666667,31353.0,210.441,212.572,-2.131,-2.67219099747277,-0.244623051586264
176.0,513.216666666667,31533.0,210.459,212.879,-2.41999999999999,-3.03614129340943,-0.277940517329525
177.0,516.216666666667,31713.0,207.639,209.802,-2.16299999999998,-2.71509328066292,-0.248550498181181
178.0,519.216666666667,31893.0,207.155,210.02,-2.86500000000001,-3.59810274086792,-0.329384715847199
179.0,522.216666666667,32073.0,209.236,211.883,-2.64700000000002,-3.32600322879401,-0.304475638224528
180.0,525.216666666667,32253.0,206.776,209.855,-3.07899999999998,-3.87076955013059,-0.354345726123487
181.0,528.216666666667,32433.0,209.574,212.075,-2.50099999999998,-3.1457148189887,-0.287971316110606
182.0,531.216666666667,32613.0,206.806,209.841,-3.035,-3.81928023809735,-0.34963218856365
183.0,534.216666666667,32793.0,208.217,210.909,-2.69199999999998,-3.38933284639079,-0.31027308471206
184.0,537.216666666667,32973.0,207.552,210.021,-2.46899999999999,-3.11011011912869,-0.284711919481097
185.0,540.216666666667,33153.0,205.672,208.097,-2.42500000000001,-3.05619544069329,-0.279776354180325
186.0,543.216666666667,33333.0,205.736,208.346,-2.61000000000001,-3.2909690679056,-0.301268471014402
187.0,546.216666666667,33513.0,207.888,210.562,-2.67400000000001,-3.37332225753396,-0.30880741137226
188.0,549.216666666667,33693.0,205.541,208.479,-2.93800000000002,-3.70817818535655,-0.339461462292714
189.0,552.216666666667,33873.0,205.944,208.351,-2.40700000000001,-3.03946061962579,-0.278244381727325
190.0,555.216666666667,34053.0,205.997,208.331,-2.33399999999997,-2.94871077727915,-0.26993677819644
191.0,558.216666666667,34233.0,207.318,210.373,-3.05499999999998,-3.86147045474172,-0.353494449738989
192.0,561.216666666667,34413.0,205.517,208.462,-2.94499999999999,-3.72422809868643,-0.34093073555206
193.0,564.216666666667,34593.0,207.77,210.073,-2.303,-2.91375942856981,-0.266737191944401
194.0,567.216666666667,34773.0,207.419,210.383,-2.964,-3.75185508937914,-0.343459820776802
195.0,570.216666666667,34953.0,207.619,210.113,-2.494,-3.15843354690126,-0.289135639333463
196.0,573.216666666667,35133.0,207.004,209.989,-2.98500000000001,-3.78204259913791,-0.346223306157886
197.0,576.216666666667,35313.0,204.951,207.539,-2.58799999999999,-3.28059409966294,-0.300318704925814
198.0,579.216666666667,35493.0,205.047,207.826,-2.779,-3.52437647646179,-0.322635518728377
199.0,582.216666666667,35673.0,207.326,210.028,-2.702,-3.4283408730608,-0.313844035489681
200.0,585.216666666667,35853.0,205.083,208.056,-2.97300000000001,-3.7739649503553,-0.345483845881015
201.0,588.216666666667,36033.0,204.403,207.46,-3.05700000000002,-3.88241630285536,-0.355411916450189
202.0,591.216666666667,36213.0,206.947,209.858,-2.911,-3.69872462385747,-0.338596045462686
203.0,594.216666666667,36393.0,206.876,208.855,-1.97899999999999,-2.51569593671078,-0.230296867807491
204.0,597.216666666667,36573.0,206.43,209.185,-2.755,-3.5037729890383,-0.320749393084058
205.0,600.216666666667,36753.0,206.536,208.814,-2.27799999999999,-2.89847482509718,-0.265337978210316
206.0,603.216666666667,36933.0,203.874,207.355,-3.48099999999999,-4.43119391044352,-0.405649213536133
