"Frame","Time (aligned)","Time [ s]","Intensity Ch3-T2","background","Intensity (bg-subst)","bleach-Corrected","Normalized"
1.0,-586.449383333333,0.0,344.442,316.618,27.824,27.824,0.60791516330853
2.0,-582.414983333333,242.064,343.275,316.598,26.677,26.6774504769867,0.582864673065431
3.0,-578.38315,483.974,347.091,319.485,27.606,27.6069262250315,0.60317240743734
4.0,-574.39235,723.422,347.292,319.732,27.5599999999999,27.5613779724388,0.602177242349169
5.0,-570.259433333333,971.397,344.744,317.611,27.133,27.1347970679941,0.592857051140506
6.0,-566.012833333333,1226.193,348.967,319.731,29.236,29.238404755396,0.638817912656607
7.0,-561.71315,1484.174,346.226,317.355,28.871,28.8738312738469,0.630852496196936
8.0,-557.716783333333,1723.956,349.421,319.955,29.466,29.4693495269206,0.643863730242023
9.0,-553.186133333333,1995.795,344.907,317.69,27.217,27.2205131729438,0.594729827159002
10.0,-548.5309,2275.109,348.861,321.268,27.593,27.5969813040758,0.60295512493853
11.0,-543.959683333333,2549.382,349.891,321.563,28.328,28.3325125709494,0.619025445892382
12.0,-539.885716666667,2793.82,350.085,320.032,30.053,30.058232659002,0.656729996250108
13.0,-535.9109,3032.309,352.416,321.89,30.526,30.5317615113487,0.667075933915635
14.0,-531.9608,3269.315,352.351,321.697,30.654,30.6602282882456,0.669882751830277
15.0,-527.92515,3511.454,350.398,319.229,31.169,31.1757772199815,0.681146768974819
16.0,-523.904233333333,3752.709,352.837,321.52,31.317,31.324250102049,0.684390692075342
17.0,-519.9213,3991.685,352.924,321.648,31.276,31.2836751252005,0.683504186048994
18.0,-515.90675,4232.558,352.047,321.642,30.405,30.4128784234503,0.664478506090938
19.0,-511.9327,4471.001,352.802,321.904,30.898,30.9064245924623,0.675261793897695
20.0,-507.903683333333,4712.742,350.005,319.159,30.846,30.8548228447812,0.674134368478325
21.0,-503.9666,4948.967,350.619,318.833,31.786,31.7955113404261,0.694687085573365
22.0,-499.955783333333,5189.616,352.749,320.527,32.222,32.232061826161,0.70422509807437
23.0,-495.910316666667,5432.344,349.145,317.557,31.588,31.5982704269004,0.690377649756908
24.0,-491.878316666667,5674.264,349.73,319.204,30.526,30.536313108103,0.667175379886172
25.0,-487.901016666667,5912.902,347.97,316.805,31.165,31.1759201305559,0.681149891369342
26.0,-483.929283333333,6151.206,348.193,316.518,31.675,31.6864914062581,0.692305153748912
27.0,-479.94185,6390.452,348.704,316.545,32.159,32.1710606016665,0.702892307341529
28.0,-475.9632,6629.171,349.245,318.124,31.121,31.1330474847949,0.68021318451737
29.0,-471.950416666667,6869.938,348.224,317.758,30.466,30.4781576033842,0.665904764117466
30.0,-467.969333333333,7108.803,346.958,315.153,31.805,31.818066905392,0.695179892860592
31.0,-464.003866666667,7346.731,346.366,315.331,31.035,31.0481119297081,0.678357462412664
32.0,-460.03785,7584.692,346.739,314.722,32.017,32.0308950334883,0.699829887334726
33.0,-455.8247,7837.481,349.341,316.954,32.387,32.4014235118952,0.707925412078155
34.0,-451.852466666667,8075.815,348.907,316.503,32.404,32.4187946708617,0.708304947405211
35.0,-447.899983333333,8312.964,348.611,316.062,32.549,32.5642216280051,0.711482321341426
36.0,-443.94665,8550.164,349.537,316.721,32.816,32.8317057749319,0.717326472752491
37.0,-439.869883333333,8794.77,347.532,314.677,32.855,32.871079781397,0.71818673926954
38.0,-435.8102,9038.351,348.458,316.796,31.662,31.6778341972157,0.692116005939509
39.0,-431.847616666667,9276.106,349.334,317.058,32.276,32.2924819431595,0.705545192427889
40.0,-427.88535,9513.842,347.825,315.52,32.305,32.3218336343505,0.706186485489408
41.0,-423.899683333333,9752.982,349.038,315.87,33.168,33.1856250569442,0.725059109976562
42.0,-419.947916666667,9990.088,350.384,316.014,34.37,34.3886136537371,0.751342714392808
43.0,-415.981966666667,10228.045,347.848,314.966,32.882,32.9001385265676,0.718821631873618
44.0,-411.995283333333,10467.246,346.96,314.917,32.043,32.0609941612749,0.700487510831845
45.0,-408.002866666667,10706.791,350.079,317.017,33.062,33.0808910677114,0.722770820005011
46.0,-404.041166666667,10944.493,351.469,316.653,34.816,34.8362311249769,0.761122524920717
47.0,-400.083166666667,11181.973,347.002,314.449,32.553,32.5722282887169,0.711657255587192
48.0,-396.0784,11422.259,348.282,316.102,32.18,32.199312922892,0.703509580719607
49.0,-391.97335,11668.562,348.803,315.533,33.27,33.290278678073,0.727345644018373
50.0,-387.93555,11910.83,348.283,314.917,33.366,33.386646026262,0.729451134681538
51.0,-383.78245,12160.016,348.323,314.785,33.538,33.5590592645251,0.733218120804858
52.0,-379.479316666667,12418.204,349.779,313.994,35.785,35.8077937688247,0.782349798616059
53.0,-375.261383333333,12671.28,346.95,314.502,32.448,32.4689582120588,0.709400950041026
54.0,-371.1766,12916.367,346.062,314.037,32.025,32.0459679060223,0.700159208344216
55.0,-367.28815,13149.674,344.917,313.715,31.202,31.2227015287156,0.682171998949202
56.0,-363.319783333333,13387.776,345.05,313.613,31.437,31.458128819625,0.687315753262043
57.0,-359.348216666667,13626.07,345.914,313.7,32.214,32.2359259487928,0.704309523704788
58.0,-355.404316666667,13862.704,344.162,310.994,33.1679999999999,33.1908551006023,0.725173379055218
59.0,-351.517166666667,14095.933,346.201,313.014,33.187,33.2101450045421,0.725594836254174
60.0,-347.602566666667,14330.809,344.636,311.508,33.128,33.15137705395,0.724310839406794
61.0,-343.714733333333,14564.079,344.424,312.204,32.22,32.2429990327028,0.704464060613941
62.0,-339.7315,14803.073,345.663,312.485,33.178,33.2019503576947,0.72541579477644
63.0,-335.829083333333,15037.218,344.273,312.747,31.526,31.549009153295,0.689301360395616
64.0,-331.96125,15269.288,344.827,314.538,30.289,30.311345114396,0.662260146467771
65.0,-327.981083333333,15508.098,345.088,312.773,32.315,32.3390916832249,0.706563549520456
66.0,-324.0498,15743.975,347.282,314.394,32.888,32.9127724302677,0.71909766485346
67.0,-320.15255,15977.81,344.644,312.112,32.532,32.5567523325086,0.711319127767838
68.0,-316.28995,16209.566,343.836,311.645,32.191,32.2157356411901,0.703868393955524
69.0,-312.475466666667,16438.435,343.593,311.353,32.24,32.2650137688149,0.704945051553374
70.0,-308.526733333333,16675.359,343.493,311.049,32.444,32.4694114090488,0.709410851756172
71.0,-304.57965,16912.184,346.1,312.938,33.162,33.188215785212,0.725115713735834
72.0,-300.74955,17141.99,345.615,312.635,32.98,33.0063099922566,0.721141328678646
73.0,-296.88685,17373.752,345.865,312.72,33.145,33.1716783261822,0.724754393576734
74.0,-293.032083333333,17605.038,344.974,312.241,32.733,32.7595779683305,0.715750581891035
75.0,-289.23675,17832.758,345.606,312.652,32.954,32.9809877518655,0.720588073434873
76.0,-285.371283333333,18064.686,345.218,313.327,31.891,31.9173377496665,0.697348820818789
77.0,-281.508233333333,18296.469,346.38,313.966,32.414,32.4409914706199,0.70878991617857
78.0,-277.618466666667,18529.855,346.875,314.059,32.816,32.843548400436,0.71758521741959
79.0,-273.6258,18769.415,347.252,314.067,33.185,33.2130804938959,0.725658972557002
80.0,-269.796983333333,18999.144,346.882,313.981,32.901,32.9290583023646,0.719453488192858
81.0,-265.970966666667,19228.705,344.611,311.46,33.151,33.1794890042343,0.724925045877754
82.0,-262.078483333333,19462.254,345.109,313.499,31.61,31.637369959438,0.691231919405696
83.0,-258.145383333333,19698.24,344.39,311.69,32.7,32.7285238900496,0.715072094072261
84.0,-254.2852,19929.851,345.914,313.054,32.86,32.8888724612684,0.718575484233949
85.0,-250.47985,20158.172,344.459,311.07,33.389,33.418547472477,0.730148136294734
86.0,-246.614683333333,20390.082,345.574,312.956,32.618,32.6470684468838,0.713292407505467
87.0,-242.817583333333,20617.908,346.109,312.987,33.122,33.1517219256836,0.724318374367845
88.0,-239.027333333333,20845.323,343.746,311.068,32.678,32.7075230644215,0.714613255647114
89.0,-235.2413,21072.485,345.026,311.096,33.93,33.9608593236139,0.741996885487807
90.0,-231.383783333333,21303.936,343.269,311.166,32.103,32.1323898260679,0.702047405427236
91.0,-227.556733333333,21533.559,345.24,311.471,33.769,33.8001151542173,0.738484852063798
92.0,-223.649633333333,21767.985,345.12,311.244,33.876,33.9074125315509,0.740829148450527
93.0,-219.825666666667,21997.423,348.404,313.899,34.505,34.5371962836628,0.754589035329269
94.0,-215.830933333333,22237.107,345.606,312.01,33.596,33.6275414126273,0.734714359169123
95.0,-212.047483333333,22464.114,347.378,314.42,32.958,32.9891302278275,0.720765975052333
96.0,-208.158366666667,22697.461,344.785,311.757,33.028,33.0593827267405,0.722300893085309
97.0,-204.300233333333,22928.949,343.54,311.2,32.34,32.3709097460843,0.707258729324916
98.0,-200.493966666667,23157.325,343.142,310.53,32.612,32.6433502439268,0.713211170014171
99.0,-196.698266666667,23385.067,343.791,312.188,31.603,31.6335535627635,0.691148536520143
100.0,-192.846133333333,23616.195,343.876,311.743,32.133,32.1642404860151,0.702743297432097
101.0,-189.060966666667,23843.305,341.667,309.38,32.287,32.318563920967,0.706115046862846
102.0,-185.2901,24069.557,343.266,310.688,32.578,32.6100220449204,0.712482995864453
103.0,-181.512516666667,24296.212,340.773,308.619,32.154,32.1857750699969,0.703213797724582
104.0,-177.674033333333,24526.521,343.819,310.559,33.26,33.293042043584,0.72740601965796
105.0,-173.8676,24754.907,344.039,310.422,33.617,33.6505709644793,0.735217522401406
106.0,-169.986733333333,24987.759,343.844,309.355,34.489,34.5236189186382,0.754292389049934
107.0,-166.041283333333,25224.486,344.266,309.453,34.813,34.8481213285202,0.761382309100877
108.0,-162.239716666667,25452.58,344.241,309.874,34.367,34.4018447193311,0.751631794517929
109.0,-158.440066666667,25680.559,346.522,312.002,34.52,34.5551723968144,0.754981788052177
110.0,-154.4209,25921.709,345.728,311.657,34.071,34.1058836988054,0.745165463576086
111.0,-150.615866666667,26150.011,344.967,311.319,33.648,33.6826158235938,0.735917657384217
112.0,-146.81485,26378.072,345.802,311.538,34.264,34.2994162988102,0.74939387797148
113.0,-143.0024,26606.819,343.957,311.339,32.618,32.6518723001203,0.713397364924414
114.0,-139.155,26837.663,342.982,308.788,34.194,34.2296724278055,0.747870072741045
115.0,-135.3434,27066.359,344.31,310.611,33.699,33.7343157887221,0.737047228716306
116.0,-131.549633333333,27293.985,344.273,309.811,34.462,34.4982773717062,0.753738711985469
117.0,-127.65875,27527.438,344.9,309.757,35.143,35.1801580116972,0.768636842398677
118.0,-123.751166666667,27761.893,341.987,307.212,34.775,34.8119295883229,0.76059157061423
119.0,-119.9271,27991.337,339.416,307.143,32.273,32.3074204288894,0.705871577275216
120.0,-116.03875,28224.638,340.881,308.967,31.914,31.9481825313134,0.698022735801253
121.0,-112.17865,28456.244,342.53,309.253,33.277,33.3127923415234,0.727837535816572
122.0,-108.2907,28689.521,341.358,308.044,33.314,33.349980989045,0.728650055322443
123.0,-104.484483333333,28917.894,342.95,310.395,32.555,32.5903054917191,0.712052216980782
124.0,-100.579433333333,29152.197,340.832,308.508,32.324,32.3591970485975,0.707002823401777
125.0,-96.7399500000001,29382.566,342.255,310.132,32.123,32.1581182296289,0.702609534763508
126.0,-92.8381500000001,29616.674,341.406,308.003,33.403,33.4396620355087,0.730609459721761
127.0,-88.8428333333334,29856.393,340.361,307.777,32.584,32.6199029158731,0.712698878961017
128.0,-84.9602333333334,30089.349,341.502,309.553,31.949,31.9843392128348,0.698812708305271
129.0,-81.1487833333334,30318.036,340.983,309.275,31.708,31.7432065270273,0.69354429915951
130.0,-77.2927166666667,30549.4,339.57,306.626,32.944,32.9807169204622,0.720582156150631
131.0,-73.4949833333334,30777.264,339.476,306.456,33.02,33.0569388867931,0.722247498628699
132.0,-69.7142166666667,31004.11,339.213,305.846,33.367,33.4044647048586,0.729840447681432
133.0,-65.8240166666667,31237.522,338.683,305.449,33.234,33.2714514088151,0.726934294734821
134.0,-61.8035000000001,31478.753,339.699,305.491,34.208,34.2466879699166,0.748241838341292
135.0,-57.9749833333334,31708.464,338.908,305.433,33.475,33.5129939309734,0.732211658226907
136.0,-54.1679500000001,31936.886,342.242,307.931,34.311,34.3500800773977,0.750500810088854
137.0,-50.31865,32167.844,342.665,308.479,34.186,34.2250734773861,0.747769592159704
138.0,-46.5084833333334,32396.454,341.587,306.723,34.864,34.9039858549699,0.76260287022508
139.0,-42.6182000000001,32629.871,344.185,309.296,34.889,34.9291510651531,0.763152694580249
140.0,-38.7476666666667,32862.103,343.148,308.817,34.331,34.37064228354,0.750950065296769
141.0,-34.7999166666667,33098.968,340.559,306.639,33.92,33.9592985293609,0.741962784334372
142.0,-30.8725000000001,33334.613,343.369,308.089,35.28,35.321009280936,0.771714244006696
143.0,-26.88555,33573.83,339.363,305.835,33.528,33.5671002480938,0.733393804956647
144.0,-23.0524333333333,33803.817,340.325,305.231,35.094,35.1350590094898,0.767651492797901
145.0,-19.2190666666667,34033.819,340.641,307.386,33.255,33.2940321071332,0.727427651150349
146.0,-15.4111833333334,34262.292,339.804,305.005,34.799,34.8399738942086,0.761204299150472
147.0,-11.5822,34492.031,341.002,304.896,36.106,36.1486463172763,0.7897969461382
148.0,-7.70241666666673,34724.818,341.833,304.385,37.448,37.4923689307042,0.819155390358419
149.0,-3.82603333333342,34957.401,345.967,306.433,39.534,39.5809846526099,0.864788698569714
150.0,0.0,35186.963,348.024,306.672,41.352,41.4012950944262,0.904559914768283
151.0,3.78616666666664,35414.133,346.344,304.691,41.653,41.7028038163738,0.911147455162968
152.0,7.6188499999999,35644.094,347.551,305.179,42.372,42.4228149986554,0.926878684154512
153.0,11.4857499999999,35876.108,350.025,307.611,42.414,42.465016010975,0.927800716762908
154.0,15.2943833333332,36104.626,351.14,307.864,43.276,43.3282055413433,0.946660190753709
155.0,19.1165333333333,36333.955,348.427,305.752,42.675,42.7266301492746,0.933516616763204
156.0,22.9884499999999,36566.27,348.108,305.464,42.644,42.6957411994036,0.932841736767328
157.0,26.9639833333333,36804.802,347.755,304.633,43.122,43.1744704409462,0.943301295603331
158.0,30.923,37042.343,349.828,306.728,43.1,43.1525919301313,0.94282328099454
159.0,34.7346833333333,37271.044,347.543,304.429,43.114,43.166756398138,0.943132754646117
160.0,38.5553166666666,37500.282,349.01,305.553,43.457,43.5103237515701,0.950639216828735
161.0,42.3839999999999,37730.003,349.266,305.395,43.871,43.924979886713,0.959698868644155
162.0,46.2551166666666,37962.27,346.462,303.411,43.051,43.1041154288499,0.941764137801862
163.0,50.1028666666666,38193.135,346.767,302.761,44.006,44.0604404959282,0.962658491932429
164.0,53.9593666666666,38424.525,349.284,304.881,44.403,44.4580788821229,0.971346329931325
165.0,57.7717333333333,38653.267,347.124,303.127,43.997,44.0517203120436,0.96246796821153
166.0,61.5614666666666,38880.651,346.421,303.138,43.283,43.3369741480031,0.946851772443964
167.0,65.372,39109.283,349.414,305.838,43.576,43.6304815123981,0.953264494459432
168.0,69.1402333333333,39335.377,351.104,306.147,44.957,45.0133537789288,0.983478303392112
169.0,72.9229666666666,39562.341,350.406,306.374,44.032,44.0873361321249,0.96324612365579
170.0,76.6953333333332,39788.683,349.032,303.905,45.127,45.183856799961,0.987203553962676
171.0,80.5420166666666,40019.484,351.53,306.33,45.2,45.2570927547312,0.988803656298938
172.0,84.4329833333333,40252.942,347.781,303.463,44.318,44.3741190787416,0.969511926625406
173.0,88.3841333333332,40490.011,348.608,303.432,45.176,45.2333478740034,0.988284864139459
174.0,92.2457166666666,40721.706,346.802,302.877,43.925,43.9808974482817,0.96092058851092
175.0,96.0382833333333,40949.26,347.338,302.266,45.072,45.1294975509889,0.986015881028655
176.0,99.8611833333333,41178.634,347.758,302.438,45.32,45.3779544118833,0.991444313071702
177.0,103.732166666667,41410.893,347.611,304.242,43.369,43.4245932432694,0.948766126117329
178.0,107.539683333333,41639.344,348.426,303.954,44.472,44.5291435630001,0.972898992994903
179.0,111.3862,41870.135,346.958,301.582,45.376,45.4344436186893,0.992678522580782
180.0,115.2761,42103.529,349.405,303.984,45.421,45.4796394822335,0.993665988465175
181.0,119.0797,42331.745,345.775,302.106,43.669,43.7255095262448,0.955340722555914
182.0,122.909583333333,42561.538,347.781,302.258,45.523,45.5820455048163,0.995903415648262
183.0,126.725233333333,42790.477,348.532,304.812,43.72,43.7768376806938,0.956462170348977
184.0,130.549483333333,43019.932,350.731,305.342,45.389,45.4481425221162,0.992977824302818
185.0,134.361,43248.623,351.871,305.031,46.84,46.9011719132302,1.02472446747386
186.0,138.173583333333,43477.378,351.224,304.978,46.246,46.3065324618675,1.0117324340069
187.0,141.9796,43705.739,348.8,302.44,46.36,46.4208176619769,1.01422940446723
188.0,145.962233333333,43944.697,349.675,303.781,45.894,45.9543403175786,1.00403753230652
189.0,149.82975,44176.748,349.646,303.715,45.931,45.9915224266051,1.00484990895549
190.0,153.626516666667,44404.554,349.864,303.592,46.272,46.3331055875253,1.01231301932978
191.0,157.436166666667,44633.133,348.957,301.071,47.886,47.9493748594736,1.04762622370036
192.0,161.243216666667,44861.556,348.951,301.116,47.835,47.8984444588678,1.04651346626787
193.0,165.041566666667,45089.457,349.647,302.922,46.725,46.7871055591419,1.02223227849048
194.0,168.86685,45318.974,349.961,303.017,46.944,47.0065299928273,1.0270263929398
195.0,172.687366666667,45548.205,348.405,300.613,47.792,47.8557946975134,1.04558162912587
196.0,176.540216666667,45779.376,345.762,300.265,45.497,45.5578593476814,0.995374982221563
197.0,180.3344,46007.027,349.114,301.424,47.69,47.7539265351896,1.04335595343097
198.0,184.254683333333,46242.244,349.541,302.206,47.335,47.3985828198812,1.03559219434808
199.0,188.124333333333,46474.423,350.835,304.539,46.296,46.3583158852677,1.01286382878454
200.0,191.981816666667,46705.872,349.268,302.281,46.987,47.0503760747907,1.02798436800007
201.0,195.8201,46936.169,351.261,303.87,47.391,47.4550516502868,1.03682595866154
202.0,199.65875,47166.488,349.908,303.694,46.214,46.2765877639453,1.01107818458454
203.0,203.571816666667,47401.272,348.898,301.208,47.69,47.7547171375779,1.04337322697827
204.0,207.528616666667,47638.68,347.586,300.68,46.906,46.9697809872262,1.02622347898992
205.0,211.333283333333,47866.96,349.119,300.852,48.2670000000001,48.3327625798412,1.05600270474686
206.0,215.156966666667,48096.381,350.697,303.051,47.646,47.7110452512701,1.04241905784742
207.0,218.961883333333,48324.676,346.409,300.424,45.985,46.0479014919239,1.00608171202839
208.0,222.7246,48550.439,349.093,301.995,47.098,47.1625502450045,1.03043521543411
209.0,226.478066666667,48775.647,347.963,301.867,46.096,46.1593001131776,1.00851561481131
210.0,230.2109,48999.617,348.899,301.88,47.019,47.0836927576627,1.0287122905385
211.0,234.111466666667,49233.651,348.588,300.477,48.1110000000001,48.1773228187812,1.05260656516486
212.0,237.927383333333,49462.606,349.52,302.84,46.68,46.7444734798136,1.02130082767582
213.0,241.69825,49688.858,345.54,300.587,44.953,45.0152065391005,0.983518783589148
214.0,245.495816666667,49916.712,347.994,301.863,46.131,46.1949576968652,1.00929468273147
215.0,249.302716666667,50145.126,350.458,303.963,46.495,46.5595839115886,1.01726125133664
216.0,253.157416666667,50376.408,348.684,301.359,47.325,47.3908601149347,1.03542346413536
217.0,257.054383333333,50610.226,349.688,303.023,46.665,46.7300627757433,1.02098597411349
218.0,260.846183333333,50837.734,347.914,300.182,47.732,47.7986739453142,1.04433362124054
219.0,264.868166666667,51079.053,350.233,302.754,47.479,47.5454429799706,1.0388008817476
220.0,268.6979,51308.837,349.016,299.785,49.231,49.3000212920283,1.07713594360471
221.0,272.482466666667,51535.911,349.957,301.417,48.54,48.6081768636847,1.06202011846667
222.0,276.27505,51763.466,347.622,298.961,48.661,48.7294710653495,1.06467022572708
223.0,280.047133333333,51989.791,350.098,300.936,49.162,49.2313011519702,1.07563450545182
224.0,283.803883333333,52215.196,347.799,299.628,48.171,48.2390264068816,1.05395470155204
225.0,287.5766,52441.559,350.246,301.452,48.794,48.8630296083816,1.0675882915515
226.0,291.3817,52669.865,351.135,301.981,49.154,49.2236628411874,1.07546761913256
