"Frame","Time (aligned)","Time [ s]","Intensity Ch3-T2","background","Intensity (bg-subst)","bleach-Corrected","Normalized"
1.0,-4.333333333333333,0.0,136.069,125.953,10.115999999999985,10.116101160505787,1.047922125535448
2.0,-3.3333333333333335,60.0,132.943,123.196,9.747000000000014,9.747194941949427,1.0097073051674896
3.0,-2.3333333333333335,120.0,132.838,123.151,9.686999999999998,9.687290614359192,1.0035018442590706
4.0,-1.3333333333333333,180.0,134.542,125.094,9.448000000000008,9.448377927558507,0.9787529922461039
5.0,-0.3333333333333333,240.0,132.016,122.748,9.267999999999986,9.26846341158518,0.9601157327918871
6.0,1.7,362.0,140.86,130.974,9.886000000000024,9.88659317779518,1.0241475023625985
7.0,2.6999999999999997,422.0,139.428,130.445,8.983000000000004,8.983628832008868,0.9306098536671393
8.0,3.6999999999999997,482.0,139.794,130.014,9.780000000000001,9.780782431296835,1.013186617273002
9.0,4.7,542.0,136.831,127.299,9.531999999999982,9.53285791860574,0.98750423448645
10.0,5.7,602.0,138.604,129.233,9.37100000000001,9.37193714685657,0.9708345279959147
11.0,6.7,662.0,138.202,128.864,9.337999999999994,9.339027236496966,0.9674254059766669
12.0,7.7,722.0,137.927,128.983,8.943999999999988,8.945073344399365,0.9266159089758245
13.0,8.7,782.0,137.867,128.443,9.423999999999978,9.425225199636229,0.976354612131937
14.0,9.7,842.0,135.787,126.098,9.689000000000007,9.690356554956638,1.0038194435927135
15.0,10.7,902.0,135.269,126.043,9.225999999999999,9.227384003797688,0.9558603364053355
16.0,11.7,962.0,137.132,127.999,9.13300000000001,9.134461396908645,0.9462345275906091
17.0,12.7,1022.0,137.142,128.0,9.141999999999996,9.143554272109382,0.9471764542238447
18.0,13.7,1082.0,134.99,125.765,9.225000000000009,9.226660649453976,0.9557854044716438
19.0,14.7,1142.0,135.217,125.837,9.38000000000001,9.381782369319733,0.9718543899255527
20.0,15.700000000000001,1202.0,134.891,125.296,9.594999999999985,9.596919191912779,0.9941403114318353
21.0,16.700000000000003,1262.0,136.241,127.397,8.844000000000008,8.84585743502386,0.9163381799387105
22.0,17.700000000000003,1322.0,136.535,127.336,9.198999999999998,9.201024002632124,0.953129716375716
23.0,18.700000000000003,1382.0,136.564,127.184,9.379999999999995,9.382157648120018,0.9718932648786421
24.0,19.700000000000003,1442.0,134.318,125.123,9.195000000000007,9.197207064837194,0.9527343215982581
25.0,20.700000000000003,1502.0,136.512,127.086,9.426000000000002,9.42835679458705,0.9766790125689346
26.0,21.700000000000003,1562.0,134.536,124.938,9.597999999999999,9.600495804440516,0.9945108110287469
27.0,22.700000000000003,1622.0,136.358,126.942,9.416000000000011,9.418542663244102,0.9756623713537066
28.0,23.700000000000003,1682.0,133.902,124.376,9.525999999999982,9.528667653454038,0.9870701669050114
29.0,24.700000000000003,1742.0,136.405,126.771,9.634,9.636794265148863,0.9982709513729003
30.0,25.700000000000003,1802.0,134.474,124.703,9.770999999999987,9.77393173973896,1.0124769573808348
31.0,26.700000000000003,1862.0,134.163,124.27,9.893000000000015,9.896067305407788,1.0251289227525169
32.0,27.700000000000003,1922.0,136.146,126.473,9.672999999999988,9.67609585531042,1.0023421844740295
33.0,28.700000000000003,1982.0,133.913,124.294,9.619000000000014,9.622174793812182,0.9967565272648111
34.0,29.700000000000003,2042.0,133.801,124.171,9.629999999999981,9.63327475667707,0.9979063671580845
35.0,30.700000000000003,2102.0,133.605,124.287,9.317999999999984,9.321261870794075,0.965585100161916
36.0,31.7,2162.0,135.891,126.749,9.141999999999996,9.145291712472691,0.947356434847765
37.0,32.699999999999996,2222.0,135.823,126.782,9.041000000000011,9.044345788932793,0.9368994944631575
38.0,33.699999999999996,2282.0,136.79,127.112,9.677999999999997,9.681678338840113,1.0029204712975186
39.0,34.699999999999996,2342.0,136.502,127.418,9.084000000000003,9.08754345092802,0.9413743197993186
40.0,35.699999999999996,2402.0,136.381,127.322,9.058999999999997,9.062624324816637,0.9387929593337793
41.0,36.699999999999996,2462.0,136.718,126.987,9.730999999999995,9.734990528002335,1.008443055709973
42.0,37.699999999999996,2522.0,136.938,127.086,9.85199999999999,9.856138709068055,1.0209927383785078
43.0,38.699999999999996,2582.0,134.618,124.683,9.934999999999988,9.939272968622403,1.029604576931203
44.0,39.699999999999996,2642.0,136.298,127.099,9.198999999999998,9.203048450593814,0.9533394279807493
45.0,40.699999999999996,2702.0,133.878,124.789,9.088999999999984,9.093090970399288,0.9419489847125636
46.0,41.699999999999996,2762.0,135.695,126.531,9.163999999999987,9.16821640969987,0.9497311933702827
47.0,42.699999999999996,2822.0,134.9,126.099,8.801000000000002,8.80513744222276,0.9121200151802846
48.0,43.699999999999996,2882.0,133.222,124.173,9.049000000000007,9.053344562611617,0.9378316731643295
49.0,44.699999999999996,2942.0,132.877,124.32,8.557000000000016,8.561193957435675,0.8868500251878334
50.0,45.699999999999996,3002.0,133.328,124.243,9.085000000000008,9.089543635814302,0.9415815180038679
51.0,46.699999999999996,3062.0,135.66,126.639,9.021,9.025601883380517,0.934957822169106
52.0,47.699999999999996,3122.0,135.884,126.573,9.310999999999993,9.31584297906542,0.9650237597355759
53.0,48.699999999999996,3182.0,133.488,124.608,8.879999999999995,8.884707647416363,0.9203626550306362
54.0,49.699999999999996,3242.0,135.779,126.491,9.287999999999997,9.293016874434183,0.9626592143733521
55.0,50.699999999999996,3302.0,133.439,124.391,9.047999999999988,9.052977768760915,0.9377936771631465
56.0,51.699999999999996,3362.0,135.848,126.277,9.571000000000012,9.57636126101299,0.9920107251116408
57.0,52.699999999999996,3422.0,133.566,123.946,9.620000000000005,9.625484963065974,0.9970994261292332
58.0,53.699999999999996,3482.0,135.065,126.251,8.813999999999993,8.819113602801455,0.9135677990317975
59.0,54.699999999999996,3542.0,133.297,123.819,9.477999999999994,9.483593669970372,0.9824009743149887
60.0,55.699999999999996,3602.0,135.564,125.957,9.607,9.612765929605903,0.9957818674802281
61.0,56.699999999999996,3662.0,133.171,123.932,9.23899999999999,9.244637509265507,0.9576476188608889
62.0,57.699999999999996,3722.0,132.852,123.811,9.040999999999997,9.046607158039373,0.937133748617321
63.0,58.699999999999996,3782.0,133.122,123.866,9.256000000000014,9.261833117239014,0.959428903742442
64.0,59.699999999999996,3842.0,132.947,123.876,9.070999999999998,9.07680729813718,0.9402621668192184
65.0,60.699999999999996,3902.0,135.295,125.933,9.36199999999998,9.368087278151057,0.9704357219210343
66.0,61.699999999999996,3962.0,132.964,123.817,9.147000000000006,9.153039012654965,0.9481589740024609
67.0,62.699999999999996,4022.0,132.929,123.876,9.052999999999997,9.059067542399724,0.9384245139286512
68.0,63.699999999999996,4082.0,135.049,125.646,9.403000000000006,9.409396214466456,0.9747148950590259
69.0,64.7,4142.0,134.784,125.809,8.974999999999994,8.981194886990224,0.9303577224560229
70.0,65.7,4202.0,134.548,125.816,8.732,8.738114539839266,0.905177144482286
71.0,66.7,4262.0,134.692,125.624,9.068000000000012,9.07444056613043,0.9400169981721543
72.0,67.7,4322.0,135.122,125.872,9.250000000000014,9.256662398175543,0.9588932714048876
73.0,68.7,4382.0,134.941,126.018,8.923000000000002,8.92951616811199,0.9250043484562398
74.0,69.7,4442.0,132.466,123.67,8.796000000000006,8.802511448938974,0.9118479897803875
75.0,70.7,4502.0,135.02,125.867,9.153000000000006,9.159867324924946,0.9488663156347998
76.0,71.7,4562.0,134.836,125.726,9.110000000000014,9.116926231634652,0.9444180681292035
77.0,72.7,4622.0,134.532,125.577,8.955000000000013,8.96189800539127,0.9283587676353328
78.0,73.7,4682.0,135.194,125.729,9.46499999999999,9.47238558000174,0.9812399335862764
79.0,74.7,4742.0,134.377,125.76,8.617000000000004,8.62381011964308,0.8933364037591974
80.0,75.7,4802.0,134.768,125.319,9.448999999999998,9.456562224486474,0.979600799686608
81.0,76.7,4862.0,132.394,123.519,8.875,8.88219166223,0.9201020253174219
82.0,77.7,4922.0,134.458,125.361,9.096999999999994,9.104462599247531,0.9431269663563193
83.0,78.7,4982.0,132.038,123.64,8.39800000000001,8.404973233491587,0.8706671944222314
84.0,79.7,5042.0,134.512,125.364,9.147999999999996,9.155687548318262,0.9484333345567695
85.0,80.7,5102.0,134.404,125.236,9.167999999999992,9.175796112878576,0.9505163712307975
86.0,81.7,5162.0,134.377,125.451,8.926000000000016,8.933679661781259,0.9254356427924992
87.0,82.7,5222.0,134.116,125.196,8.920000000000016,8.927763776753203,0.9248228190657826
88.0,83.7,5282.0,131.92,123.14,8.779999999999987,8.787729800613427,0.9103167658348719
89.0,84.7,5342.0,131.946,123.042,8.903999999999996,8.911928087475603,0.9231824075175186
90.0,85.7,5402.0,131.809,123.021,8.787999999999997,8.79591276020798,0.9111644347416412
91.0,86.7,5462.0,133.969,125.002,8.966999999999999,8.975163683912816,0.9297329529872194
92.0,87.7,5522.0,134.152,125.14,9.011999999999986,9.020294855048245,0.9344080696189887
93.0,88.7,5582.0,134.156,124.713,9.443000000000012,9.45178607489158,0.9791060406133301
94.0,89.7,5642.0,131.661,122.707,8.954000000000008,8.962420717117007,0.9284129150953064
95.0,90.7,5702.0,131.931,123.147,8.784000000000006,8.792348765035502,0.9107952421705822
96.0,91.7,5762.0,133.79,125.022,8.767999999999986,8.776421321587591,0.9091453258512948
97.0,92.7,5822.0,133.733,124.85,8.88300000000001,8.8916206903589,0.9210787738731943
98.0,93.7,5882.0,133.475,124.869,8.605999999999995,8.614438013951508,0.8923655517717344
99.0,94.7,5942.0,133.644,124.832,8.812000000000012,8.82072819974601,0.9137350543641807
100.0,95.7,6002.0,131.684,122.86,8.823999999999998,8.832828413471033,0.9149885097700698
101.0,96.7,6062.0,133.952,124.557,9.394999999999996,9.404493743533433,0.9742070504181907
102.0,97.7,6122.0,131.214,122.716,8.498000000000005,8.506672382163012,0.8812021610412857
103.0,98.7,6182.0,133.516,124.671,8.844999999999985,8.854115043441512,0.9171935816816912
104.0,99.7,6242.0,131.263,122.605,8.658000000000001,8.667009003870001,0.8978113557057606
105.0,100.7,6302.0,130.857,122.562,8.295000000000002,8.303714324219587,0.8601778319939488
106.0,101.7,6362.0,131.374,122.478,8.896,8.90543475953915,0.9225097667535518
107.0,102.7,6422.0,131.336,122.564,8.77200000000002,8.781391063322912,0.9096601390426626
108.0,103.7,6482.0,133.148,124.695,8.453000000000003,8.462134171564806,0.8765884689105831
109.0,104.7,6542.0,133.539,124.516,9.022999999999982,9.032840432061171,0.9357076599968291
110.0,105.7,6602.0,131.502,122.493,9.009000000000015,9.018915352444061,0.9342651675979213
111.0,106.7,6662.0,131.388,122.555,8.832999999999998,8.842810073583589,0.9160225052111554
112.0,107.7,6722.0,133.408,124.457,8.950999999999993,8.9610307361637,0.9282689276270186
113.0,108.7,6782.0,133.186,124.404,8.78200000000001,8.791929268980427,0.910751786773022
114.0,109.7,6842.0,130.992,122.501,8.490999999999985,8.500685259549014,0.8805819578467984
115.0,110.7,6902.0,131.004,122.224,8.779999999999987,8.790102808001174,0.91056258454568
116.0,111.7,6962.0,133.412,124.45,8.962000000000003,8.972401951965738,0.9294468664835137
117.0,112.7,7022.0,133.422,124.438,8.983999999999995,8.994517431497645,0.9317377985284393
118.0,113.7,7082.0,133.09,124.018,9.072000000000003,9.0827112784114,0.9408737573381265
119.0,114.7,7142.0,133.016,124.17,8.84599999999999,8.856533005895516,0.9174440572665101
120.0,115.7,7202.0,133.285,124.239,9.045999999999992,9.056861715726022,0.9381960133887898
121.0,116.7,7262.0,130.71,122.005,8.705000000000013,8.71553942506628,0.9028385990405429
122.0,117.7,7322.0,132.924,124.375,8.549000000000007,8.559436144753876,0.8866679342050944
123.0,118.7,7382.0,132.859,124.15,8.709000000000003,8.719718660624933,0.903271524071664
124.0,119.7,7442.0,132.932,124.284,8.647999999999982,8.658730171331314,0.8969537553661393
125.0,120.7,7502.0,130.565,121.873,8.691999999999993,8.702871793455303,0.9015263650847278
126.0,121.7,7562.0,130.464,121.92,8.543999999999997,8.554772225076631,0.8861848009758038
127.0,122.7,7622.0,132.805,124.008,8.797000000000011,8.808179287344885,0.9124351184750571
128.0,123.7,7682.0,130.637,122.036,8.600999999999999,8.612016328946428,0.8921146905696135
129.0,124.7,7742.0,130.925,122.065,8.860000000000014,8.87143677513398,0.9189879316595257
130.0,125.7,7802.0,130.512,121.912,8.599999999999994,8.611187270150051,0.8920288087617599
131.0,126.7,7862.0,132.751,124.06,8.691000000000003,8.70239267056998,0.9014767329720774
132.0,127.7,7922.0,130.578,121.897,8.680999999999997,8.692466486215967,0.9004484842385314
133.0,128.7,7982.0,134.794,125.956,8.838000000000008,8.849762360235696,0.9167426892909915
134.0,129.7,8042.0,132.549,124.012,8.537000000000006,8.548447247943239,0.8855295995917504
135.0,130.7,8102.0,130.604,121.941,8.663000000000011,8.674702947712332,0.8986083677024854
136.0,131.7,8162.0,133.071,124.005,9.066000000000003,9.078338148038949,0.9404207468351242
137.0,132.7,8222.0,130.184,121.743,8.441000000000003,8.452572095075157,0.8755979379381679
138.0,133.7,8282.0,130.112,121.714,8.397999999999996,8.409597240255291,0.8711461930917216
139.0,134.7,8342.0,130.835,121.659,9.176000000000002,9.188763508583436,0.9518596576070497
140.0,135.7,8402.0,130.362,121.868,8.494,8.505899928005949,0.8811221428811956
141.0,136.7,8462.0,132.653,123.878,8.774999999999991,8.787381476889898,0.9102806831454104
142.0,137.7,8522.0,130.133,121.552,8.581000000000003,8.593193675460636,0.890164860814445
143.0,138.7,8582.0,130.593,121.679,8.913999999999987,8.926756138465239,0.9247184382930184
144.0,139.7,8642.0,130.414,121.734,8.679999999999993,8.692508203745271,0.9004528057376235
145.0,140.7,8702.0,130.208,121.662,8.545999999999992,8.558400688326325,0.8865606717644324
146.0,141.7,8762.0,130.595,121.709,8.885999999999996,8.898983035309552,0.9218414356978637
147.0,142.7,8822.0,132.362,123.992,8.36999999999999,8.382312947799369,0.8683198261653244
148.0,143.7,8882.0,132.404,123.586,8.817999999999998,8.831060302239715,0.9148053519654663
149.0,144.7,8942.0,130.287,121.914,8.373000000000005,8.385485069066618,0.8686484247042369
150.0,145.7,9002.0,130.071,121.43,8.640999999999991,8.653971225987377,0.8964607784730656
151.0,146.7,9062.0,132.282,123.423,8.859000000000009,8.872387194788397,0.9190863851811548
152.0,147.7,9122.0,132.788,123.622,9.166000000000011,9.179942913930121,0.950945936386697
153.0,148.7,9182.0,130.046,121.648,8.397999999999996,8.410858774454027,0.8712768748215699
154.0,149.7,9242.0,130.411,121.477,8.933999999999997,8.947768959377512,0.9268951464540491
155.0,150.7,9302.0,130.082,121.611,8.47099999999999,8.484140231048269,0.8788680661845407
156.0,151.7,9362.0,132.147,123.528,8.618999999999986,8.632456133054864,0.8942320401914682
157.0,152.7,9422.0,132.306,123.265,9.041000000000011,9.055205518414034,0.9380244486940573
158.0,153.7,9482.0,131.75,123.626,8.123999999999995,8.136846065719505,0.8428920281692012
159.0,154.7,9542.0,130.388,121.394,8.994,9.008311834893595,0.9331667542395202
160.0,155.7,9602.0,130.0,121.405,8.594999999999999,8.608763007469866,0.8917776805394965
161.0,156.7,9662.0,129.624,121.303,8.320999999999998,8.334407600222024,0.8633573339105263
162.0,157.7,9722.0,131.377,123.096,8.281000000000006,8.294426092198401,0.8592156684402561
163.0,158.7,9782.0,129.449,121.308,8.141000000000005,8.154280650789952,0.8446980685749831
164.0,159.7,9842.0,131.489,123.084,8.405000000000001,8.418795509225532,0.8720990374155975
165.0,160.7,9902.0,129.733,121.173,8.560000000000002,8.574135658711413,0.8881906498903485
166.0,161.7,9962.0,129.324,121.02,8.304000000000016,8.31779608758467,0.8616365551880619
167.0,162.7,10022.0,129.691,121.123,8.567999999999998,8.582320514301232,0.8890385152023691
168.0,163.7,10082.0,129.265,121.079,8.185999999999993,8.199764038555077,0.8494096711605192
169.0,164.7,10142.0,129.558,121.11,8.447999999999993,8.462289190965413,0.8766045272968334
170.0,165.7,10202.0,129.434,121.047,8.387,8.401270026085475,0.8702835809218582
171.0,166.7,10262.0,131.626,122.907,8.719000000000008,8.733922244883205,0.9047428666343758
172.0,167.7,10322.0,129.249,120.928,8.320999999999998,8.335324435483063,0.8634523084407598
173.0,168.7,10382.0,131.687,123.074,8.613000000000014,8.627913386359692,0.8937614592139708
174.0,169.7,10442.0,131.201,123.034,8.166999999999987,8.181222950378366,0.847489008622294
175.0,170.7,10502.0,129.561,120.922,8.63900000000001,8.654131486188744,0.8964773797513833
176.0,171.7,10562.0,129.638,120.938,8.700000000000003,8.715325482468558,0.902816436828225
177.0,172.7,10622.0,129.346,120.86,8.486000000000004,8.501033520740984,0.8806180340586452
178.0,173.7,10682.0,129.148,120.946,8.201999999999998,8.216612561321371,0.8511550016499292
179.0,174.7,10742.0,129.352,121.034,8.317999999999998,8.33290255380655,0.8632014268655384
180.0,175.7,10802.0,131.62,122.889,8.731000000000009,8.74672995271036,0.9060696110190473
181.0,176.7,10862.0,131.136,123.023,8.113,8.127697827521278,0.8419443665092903
182.0,177.7,10922.0,133.002,124.707,8.295000000000016,8.310110646517305,0.8608404239897666
183.0,178.7,10982.0,129.052,120.808,8.243999999999986,8.25910033259018,0.855556289742134
184.0,179.7,11042.0,131.097,122.706,8.391000000000005,8.406453653000776,0.870820550377667
185.0,180.7,11102.0,131.169,122.675,8.494000000000014,8.50972844432513,0.8815187370724941
186.0,181.7,11162.0,131.714,122.651,9.063000000000002,9.079872866901773,0.9405797276348724
187.0,182.7,11222.0,128.948,120.722,8.226000000000013,8.241397011719153,0.8537224111221149
188.0,183.7,11282.0,128.964,120.661,8.302999999999997,8.318624322261039,0.8617223516257143
189.0,184.7,11342.0,131.577,122.728,8.849000000000004,8.865740424718156,0.9183978494192602
190.0,185.7,11402.0,129.214,120.597,8.617000000000004,8.633387863540353,0.8943285577109441
191.0,186.7,11462.0,129.191,120.775,8.415999999999997,8.432089920983065,0.873476199229784
192.0,187.7,11522.0,131.013,122.552,8.460999999999999,8.477260725300994,0.8781554214441478
193.0,188.7,11582.0,128.893,120.547,8.346000000000004,8.362123334012509,0.8662283936403251
194.0,189.7,11642.0,129.16,120.646,8.513999999999996,8.530533192010887,0.8836738910265889
195.0,190.7,11702.0,130.961,122.534,8.427000000000007,8.443448682253027,0.8746528479272031
196.0,191.7,11762.0,128.768,120.73,8.037999999999997,8.05376992948241,0.8342862105833976
197.0,192.7,11822.0,128.444,120.698,7.745999999999995,7.761274660600735,0.8039867642836512
198.0,193.7,11882.0,128.999,120.647,8.35199999999999,8.36855334240099,0.8668944751623223
199.0,194.7,11942.0,128.482,120.373,8.108999999999995,8.125152976881374,0.8416807466374221
200.0,195.7,12002.0,131.072,122.327,8.745000000000005,8.762507501665837,0.9077039998388933
201.0,196.7,12062.0,128.725,120.415,8.309999999999988,8.326719897868175,0.8625609684666355
202.0,197.7,12122.0,128.279,120.296,7.98299999999999,7.999141957888654,0.8286273248923655
203.0,198.7,12182.0,130.535,122.205,8.329999999999998,8.346927075168395,0.8646542203876612
204.0,199.7,12242.0,130.388,122.186,8.201999999999998,8.21874915833289,0.8513763307218908
205.0,200.7,12302.0,130.423,122.341,8.082000000000008,8.09858509391303,0.8389285922303609
206.0,201.7,12362.0,128.594,120.216,8.378,8.395276468653178,0.8696627111475924
207.0,202.7,12422.0,128.542,120.389,8.153000000000006,8.169894189453599,0.8463154676464175
208.0,203.7,12482.0,130.447,122.328,8.119,8.135905095204162,0.8427945534794112
209.0,204.7,12542.0,130.106,122.165,7.940999999999988,7.957614045630021,0.8243254681401797
210.0,205.7,12602.0,128.124,120.228,7.896000000000001,7.912599022873878,0.8196623832639817
211.0,206.7,12662.0,128.436,120.383,8.053000000000011,8.070009768995536,0.8359684878630466
212.0,207.7,12722.0,130.3,122.151,8.149000000000015,8.166294205380463,0.8459425470021933
213.0,208.7,12782.0,130.256,122.061,8.194999999999993,8.212473953153637,0.8507262851909814
214.0,209.7,12842.0,130.236,122.003,8.23299999999999,8.250637485378293,0.8546796274097145
215.0,210.7,12902.0,127.926,120.003,7.923000000000002,7.940052775164433,0.822506304454347
216.0,211.7,12962.0,128.083,119.795,8.287999999999997,8.305921428174575,0.8604064648467733
217.0,212.7,13022.0,127.761,120.082,7.679000000000002,7.695681522906388,0.7971920022322837
