"Frame","Time (aligned)","Time [ s]","Intensity Ch3-T2","background","Intensity (bg-subst)","bleach-Corrected","Normalized"
1.0,-5.266666666666667,0.0,151.956,126.664,25.291999999999987,25.29225292126459,1.0009536293419692
2.0,-4.266666666666667,60.0,151.217,125.698,25.51900000000002,25.519510385103853,1.0099474577657594
3.0,-3.2666666666666666,120.0,148.309,123.21,25.099000000000004,25.099752981294667,0.9933353474055663
4.0,-2.2666666666666666,180.0,148.138,122.602,25.536,25.537021460429074,1.0106404673784273
5.0,-0.3333333333333333,296.0,147.661,122.77,24.891000000000005,24.892244581114277,0.9851230981082774
6.0,0.7666666666666668,362.0,157.035,131.261,25.774,25.775546486394127,1.0200802152400295
7.0,1.7666666666666668,422.0,153.856,128.482,25.373999999999995,25.375776242167746,1.0042591067722704
8.0,2.7666666666666666,482.0,153.008,127.975,25.033000000000015,25.03500272010775,0.9907728232548848
9.0,3.766666666666666,542.0,154.868,129.771,25.09700000000001,25.09925883164591,0.9933157911846988
10.0,4.766666666666667,602.0,152.357,127.432,24.924999999999997,24.927492624629153,0.986518057157329
11.0,5.766666666666667,662.0,154.966,129.444,25.52200000000002,25.52480757441378,1.010157096696763
12.0,6.766666666666667,722.0,153.829,128.982,24.84700000000001,24.849981818905565,0.9834505280390741
13.0,7.766666666666667,782.0,153.941,128.972,24.968999999999994,24.97224618099719,0.988289201658058
14.0,8.766666666666666,842.0,151.16,126.491,24.668999999999997,24.67245390176748,0.9764247714359726
15.0,9.766666666666666,902.0,153.755,128.455,25.299999999999983,25.303795284639214,1.0014104241774069
16.0,10.766666666666666,962.0,152.781,128.33,24.450999999999993,24.454912472989488,0.9678154599861217
17.0,11.766666666666666,1022.0,153.316,128.251,25.064999999999998,25.069261412209773,0.9921286282242079
18.0,12.766666666666666,1082.0,151.322,126.099,25.223,25.227540548637116,0.9983926046500826
19.0,13.766666666666666,1142.0,151.035,126.091,24.944000000000003,24.948739810267718,0.9873589252146123
20.0,14.766666666666666,1202.0,150.397,125.89,24.50699999999999,24.51190189017267,0.9700708448322708
21.0,15.766666666666667,1262.0,152.982,127.971,25.010999999999996,25.016252861531154,0.9900307881720348
22.0,16.76666666666667,1322.0,152.772,127.938,24.83399999999999,24.839464081026865,0.9830342832729425
23.0,17.76666666666667,1382.0,151.076,125.936,25.139999999999986,25.14578286500397,0.9951570032027166
24.0,18.76666666666667,1442.0,150.82,125.919,24.900999999999996,24.906976957206172,0.9857061393013226
25.0,19.76666666666667,1502.0,150.832,125.865,24.967,24.97324253028377,0.9883286326821585
26.0,20.76666666666667,1562.0,154.695,129.807,24.888000000000005,24.894471721287314,0.9852112383006989
27.0,21.76666666666667,1622.0,152.389,127.792,24.59700000000001,24.603642086641354,0.9737015092455098
28.0,22.76666666666667,1682.0,149.719,125.705,24.013999999999996,24.020724861436662,0.9506322668972321
29.0,23.76666666666667,1742.0,152.045,127.759,24.285999999999987,24.29304396132501,0.9614094322300685
30.0,24.76666666666667,1802.0,152.037,127.965,24.072000000000003,24.079222683348334,0.9529473476191183
31.0,25.76666666666667,1862.0,151.895,127.892,24.003000000000014,24.010442083463353,0.9502253207875224
32.0,26.76666666666667,1922.0,152.073,127.781,24.292,24.29977468388308,0.9616758039603198
33.0,27.76666666666667,1982.0,149.343,125.616,23.72699999999999,23.734831202077263,0.9393178815464098
34.0,28.76666666666667,2042.0,151.947,127.607,24.340000000000003,24.34827700701146,0.9635953077909197
35.0,29.76666666666667,2102.0,149.271,125.417,23.853999999999985,23.862350361227957,0.9443645164017497
36.0,30.76666666666667,2162.0,149.131,125.451,23.680000000000007,23.68852633464816,0.9374853431302536
37.0,31.76666666666667,2222.0,148.761,125.122,23.638999999999996,23.647748048289127,0.9358715219393741
38.0,32.766666666666666,2282.0,148.87,125.38,23.49000000000001,23.498927896192853,0.929981889575515
39.0,33.766666666666666,2342.0,148.337,125.207,23.129999999999995,23.139022459265192,0.9157384509054166
40.0,34.766666666666666,2402.0,148.651,125.175,23.476000000000013,23.485392278330448,0.9294462106912758
41.0,35.766666666666666,2462.0,148.287,125.066,23.221000000000004,23.230522561991815,0.9193596134880655
42.0,36.766666666666666,2522.0,150.422,127.005,23.417,23.426837205668583,0.9271288642421581
43.0,37.766666666666666,2582.0,147.816,124.738,23.078000000000003,23.08792567386695,0.9137162699256796
44.0,38.766666666666666,2642.0,149.999,126.993,23.006,23.016124867307457,0.9108747168960173
45.0,39.766666666666666,2702.0,147.545,124.727,22.817999999999984,22.82827041066907,0.9034402822987668
46.0,40.766666666666666,2762.0,147.466,124.623,22.843000000000004,22.85351019716002,0.9044391595427427
47.0,41.766666666666666,2822.0,149.681,126.777,22.90400000000001,22.914767410143185,0.9068634445540364
48.0,42.766666666666666,2882.0,149.425,126.463,22.962000000000018,22.973024405645702,0.9091689944496639
49.0,43.766666666666666,2942.0,147.324,124.696,22.628000000000014,22.639090436935163,0.895953389695832
50.0,44.766666666666666,3002.0,146.958,124.533,22.424999999999997,22.436215303592242,0.8879245042637991
51.0,45.766666666666666,3062.0,147.449,124.653,22.796000000000006,22.807628925123854,0.9026233851272966
52.0,46.766666666666666,3122.0,146.545,124.567,21.977999999999994,21.989431531940706,0.8702428118041408
53.0,47.766666666666666,3182.0,149.459,126.725,22.73400000000001,22.746052213554478,0.9001864557987712
54.0,48.766666666666666,3242.0,147.185,124.529,22.656000000000006,22.66823754383947,0.8971069011102366
55.0,49.766666666666666,3302.0,148.972,126.733,22.239000000000004,22.25123481426551,0.8806038083682834
56.0,50.766666666666666,3362.0,147.968,126.505,21.462999999999994,21.47502264602669,0.8498848214375139
57.0,51.766666666666666,3422.0,146.775,124.901,21.87400000000001,21.886471734106557,0.8661681260243002
58.0,52.766666666666666,3482.0,147.079,124.579,22.500000000000014,22.51305378523179,0.8909654258183028
59.0,53.766666666666666,3542.0,148.85,126.675,22.174999999999997,22.188087110317905,0.8781047062263061
60.0,54.766666666666666,3602.0,148.383,126.412,21.971000000000004,21.98418655557108,0.8700352392265085
61.0,55.766666666666666,3662.0,147.803,126.615,21.188000000000002,21.20092862282907,0.8390374126220685
62.0,56.766666666666666,3722.0,147.963,126.555,21.407999999999987,21.421277075468073,0.8477578134529277
63.0,57.766666666666666,3782.0,148.086,126.539,21.54700000000001,21.560578886900263,0.8532707526980406
64.0,58.766666666666666,3842.0,147.998,126.41,21.587999999999994,21.60182074216574,0.8549029198615307
65.0,59.766666666666666,3902.0,147.656,126.428,21.22800000000001,21.24180268538679,0.8406550242041788
66.0,60.766666666666666,3962.0,149.691,128.414,21.277000000000015,21.29104745515029,0.842603910733755
67.0,61.766666666666666,4022.0,147.257,126.399,20.858000000000004,20.87197954262383,0.8260190873378346
68.0,62.766666666666666,4082.0,147.352,126.154,21.198000000000008,21.212419542088686,0.8394921715307823
69.0,63.76666666666666,4142.0,147.613,126.369,21.244,21.25866341829754,0.8413222961887237
70.0,64.76666666666667,4202.0,147.5,126.345,21.155,21.169813684184575,0.8378060232768839
71.0,65.76666666666667,4262.0,145.054,124.12,20.933999999999997,20.94886841766367,0.8290620032364987
72.0,66.76666666666667,4322.0,144.706,123.827,20.87899999999999,20.894038293135868,0.826892073483138
73.0,67.76666666666667,4382.0,144.387,123.987,20.400000000000006,20.414897436902905,0.8079298331281407
74.0,68.76666666666667,4442.0,146.13,125.985,20.144999999999996,20.159912817061787,0.7978386885610323
75.0,69.76666666666667,4502.0,144.437,123.938,20.49900000000001,20.514380016785363,0.8118669062587801
76.0,70.76666666666667,4562.0,146.11,125.901,20.209000000000017,20.224364677838043,0.8003894033653903
77.0,71.76666666666667,4622.0,143.853,123.708,20.14500000000001,20.160517623518366,0.7978626240807207
78.0,72.76666666666667,4682.0,143.972,123.867,20.105000000000004,20.120688017531457,0.7962863473926786
79.0,73.76666666666667,4742.0,143.468,123.39,20.07799999999999,20.093867886990086,0.7952249272381204
80.0,74.76666666666667,4802.0,145.272,125.545,19.72699999999999,19.742787914323696,0.7813307607546655
81.0,75.76666666666667,4862.0,143.562,123.682,19.88000000000001,19.89610932339521,0.7873985326270923
82.0,76.76666666666667,4922.0,143.078,123.473,19.605000000000004,19.62108269300297,0.7765142154128929
83.0,77.76666666666667,4982.0,144.786,125.469,19.317000000000007,19.33303976558191,0.7651147716976202
84.0,78.76666666666667,5042.0,142.73,123.548,19.181999999999988,19.19811964930486,0.7597752402419148
85.0,79.76666666666667,5102.0,144.43,125.482,18.948000000000008,18.964112646904827,0.7505142954351032
86.0,80.76666666666667,5162.0,142.681,123.354,19.327000000000012,19.343628369173896,0.765533821009995
87.0,81.76666666666667,5222.0,142.65,123.415,19.235,19.25174173159726,0.7618973611162606
88.0,82.76666666666667,5282.0,144.323,125.115,19.208000000000013,19.22491047951971,0.760835500821315
89.0,83.76666666666667,5342.0,141.918,123.089,18.829000000000008,18.84576526943826,0.7458306384525863
90.0,84.76666666666667,5402.0,143.795,125.153,18.64199999999998,18.658785352275494,0.7384308141949072
91.0,85.76666666666667,5462.0,144.377,125.282,19.095000000000013,19.11238435868355,0.7563822229975735
92.0,86.76666666666667,5522.0,143.534,124.852,18.681999999999988,18.69919534864752,0.7400300601243304
93.0,87.76666666666667,5582.0,142.028,122.987,19.040999999999997,19.058716366833668,0.7542582852294015
94.0,88.76666666666667,5642.0,143.851,125.097,18.754000000000005,18.77163704811394,0.7428969768131023
95.0,89.76666666666667,5702.0,141.866,123.142,18.724000000000018,18.741796251881237,0.7417160122946561
96.0,90.76666666666667,5762.0,143.792,125.06,18.732,18.74999135446841,0.7420403376010255
97.0,91.76666666666667,5822.0,141.378,122.72,18.657999999999987,18.676107040494884,0.739116328717615
98.0,92.76666666666667,5882.0,143.566,124.84,18.726,18.74436047516338,0.7418174927206465
99.0,93.76666666666667,5942.0,142.968,124.838,18.129999999999995,18.147957587539143,0.7182145484999043
100.0,94.76666666666667,6002.0,141.11,122.97,18.140000000000015,18.158149073024102,0.7186178816634747
101.0,95.76666666666667,6062.0,141.374,123.015,18.358999999999995,18.37755195716129,0.7273008611453292
102.0,96.76666666666667,6122.0,140.984,122.63,18.354000000000013,18.37273063099788,0.7271100547376702
103.0,97.76666666666667,6182.0,143.256,124.763,18.492999999999995,18.51205760298068,0.7326239897242273
104.0,98.76666666666667,6242.0,140.369,122.633,17.736000000000004,17.754455034954766,0.7026414870810259
105.0,99.76666666666667,6302.0,140.574,122.676,17.89800000000001,17.916802769726612,0.7090664803325643
106.0,100.76666666666667,6362.0,140.847,122.869,17.97800000000001,17.997066783610038,0.7122429690483885
107.0,101.76666666666667,6422.0,142.337,124.569,17.767999999999986,17.78702193492032,0.703930338525712
108.0,102.76666666666667,6482.0,142.358,124.659,17.698999999999998,17.71812524577374,0.7012037174032049
109.0,103.76666666666667,6542.0,140.313,122.652,17.660999999999987,17.680260985329994,0.6997052202534451
110.0,104.76666666666667,6602.0,141.913,124.456,17.457000000000008,17.47621326535862,0.6916299291158737
111.0,105.76666666666667,6662.0,140.108,122.577,17.531000000000006,17.550470213969657,0.6945686852024692
112.0,106.76666666666667,6722.0,141.909,124.364,17.544999999999987,17.564661408333382,0.6951303088564508
113.0,107.76666666666667,6782.0,142.239,124.475,17.76400000000001,17.784084665698956,0.7038140946190646
114.0,108.76666666666667,6842.0,141.949,124.303,17.646000000000015,17.666127910729276,0.6991458967183141
115.0,109.76666666666667,6902.0,141.936,124.538,17.39800000000001,17.41801920883881,0.6893268700621402
116.0,110.76666666666667,6962.0,139.44,122.42,17.019999999999996,17.03975465548502,0.6743568601263087
117.0,111.76666666666667,7022.0,140.886,124.194,16.691999999999993,16.711541069296384,0.6613676423876766
118.0,112.76666666666667,7082.0,141.163,124.152,17.01100000000001,17.031084827717855,0.6740137473321923
119.0,113.76666666666667,7142.0,141.004,124.234,16.769999999999996,16.789968178709916,0.6644714346852886
120.0,114.76666666666667,7202.0,141.245,124.086,17.159000000000006,17.17960315942328,0.679891435002292
121.0,115.76666666666667,7262.0,138.955,122.253,16.702000000000012,16.72222165163204,0.66179033180509
122.0,116.76666666666667,7322.0,139.267,122.135,17.13199999999999,17.152913794820822,0.6788351899755313
123.0,117.76666666666667,7382.0,140.975,124.183,16.791999999999987,16.812666867517937,0.6653697467104933
124.0,118.76666666666667,7442.0,138.72,122.066,16.653999999999996,16.67466376888899,0.6599082046777176
125.0,119.76666666666667,7502.0,140.979,124.102,16.87700000000001,16.89810944065179,0.668751179513055
126.0,120.76666666666667,7562.0,140.961,124.21,16.75100000000002,16.772119562530296,0.663765066723552
127.0,121.76666666666667,7622.0,140.788,124.116,16.67200000000001,16.69318689082799,0.6606412665441044
128.0,122.76666666666667,7682.0,138.961,122.073,16.88800000000002,16.90963048055429,0.6692071304613592
129.0,123.76666666666667,7742.0,138.796,122.273,16.522999999999996,16.544328423875676,0.6547501178505482
130.0,124.76666666666667,7802.0,140.874,124.129,16.74499999999999,16.766782655658446,0.6635538559500606
131.0,125.76666666666667,7862.0,140.204,123.892,16.312000000000012,16.333382722625423,0.6464018356347315
132.0,126.76666666666667,7922.0,138.636,122.075,16.560999999999993,16.582874954293583,0.6562756161776625
133.0,127.76666666666667,7982.0,138.148,122.214,15.933999999999997,15.955206319076195,0.6314353142717478
134.0,128.76666666666665,8042.0,138.102,122.064,16.03800000000001,16.05950532535008,0.6355629998991058
135.0,129.76666666666665,8102.0,138.22,122.073,16.147000000000006,16.16881317057727,0.6398889128470867
136.0,130.76666666666665,8162.0,140.393,124.043,16.349999999999994,16.372251127336945,0.6479400722988928
137.0,131.76666666666665,8222.0,139.885,123.713,16.171999999999997,16.194170823546425,0.6408924547162149
138.0,132.76666666666665,8282.0,137.976,121.856,16.120000000000005,16.142260956527196,0.6388380956224122
139.0,133.76666666666665,8342.0,139.693,123.71,15.983000000000018,16.005231817533694,0.6334150985320331
140.0,134.76666666666665,8402.0,140.382,123.993,16.38900000000001,16.41196066871787,0.6495115973697704
141.0,135.76666666666665,8462.0,137.76,121.693,16.066999999999993,16.08967044891055,0.636756799834659
142.0,136.76666666666665,8522.0,137.916,121.965,15.950999999999993,15.973666509412949,0.6321658855883261
143.0,137.76666666666665,8582.0,139.321,123.867,15.453999999999994,15.47611502847677,0.6124750355016253
144.0,138.76666666666665,8642.0,139.499,124.011,15.488,15.510318785668995,0.6138286663942654
145.0,139.76666666666665,8702.0,137.706,121.923,15.782999999999987,15.805901949901052,0.62552651877347
146.0,140.76666666666665,8762.0,139.089,123.683,15.405999999999992,15.428509187708638,0.6105910104112913
147.0,141.76666666666665,8822.0,139.123,123.788,15.334999999999994,15.357559026822392,0.6077831221119545
148.0,142.76666666666665,8882.0,137.533,121.77,15.762999999999991,15.786346512157472,0.6247526024899447
149.0,143.76666666666665,8942.0,137.312,121.66,15.652000000000015,15.675338863135167,0.6203594189519066
150.0,144.76666666666665,9002.0,139.094,123.525,15.568999999999988,15.592371023885836,0.6170759249874185
151.0,145.76666666666665,9062.0,136.764,121.66,15.104000000000013,15.126824267985542,0.5986516779898331
152.0,146.76666666666665,9122.0,138.985,123.767,15.218000000000018,15.241148948744119,0.6031761347270362
153.0,147.76666666666665,9182.0,138.768,123.75,15.018,15.040995126786218,0.5952549465616677
154.0,148.76666666666665,9242.0,138.617,123.609,15.007999999999996,15.031130125625443,0.5948645341794225
155.0,149.76666666666665,9302.0,136.837,121.774,15.062999999999988,15.08636575378115,0.5970505119427935
156.0,150.76666666666665,9362.0,136.515,121.811,14.70399999999998,14.72695614113456,0.5828266957679784
157.0,151.76666666666665,9422.0,137.934,123.382,14.551999999999992,14.574864584001858,0.5768075959045472
158.0,152.76666666666665,9482.0,138.241,123.528,14.713000000000008,14.736264914442541,0.5831950951532112
159.0,153.76666666666665,9542.0,136.286,121.61,14.676000000000002,14.699353401033846,0.5817343034465192
160.0,154.76666666666665,9602.0,136.072,121.434,14.638000000000005,14.661439546636878,0.580233843591119
161.0,155.76666666666665,9662.0,135.944,121.392,14.551999999999992,14.575447590245265,0.5768306686698357
162.0,156.76666666666665,9722.0,137.611,123.232,14.37899999999999,14.402312858316707,0.5699787745808225
163.0,157.76666666666665,9782.0,137.455,123.195,14.26000000000002,14.283262753993956,0.5652673068295566
164.0,158.76666666666665,9842.0,139.523,125.198,14.325000000000003,14.348512274795452,0.5678495894305727
165.0,159.76666666666665,9902.0,138.017,123.235,14.781999999999996,14.806410433069162,0.5859711393304525
166.0,160.76666666666665,9962.0,136.024,121.305,14.718999999999994,14.743453831064363,0.5834796001439706
167.0,161.76666666666665,10022.0,135.347,121.17,14.177000000000007,14.200695370127061,0.5619996610882255
168.0,162.76666666666665,10082.0,137.082,123.083,13.998999999999995,14.02253808645646,0.5549489969880786
169.0,163.76666666666665,10142.0,135.6,121.265,14.334999999999994,14.359246632633669,0.5682744070405448
170.0,164.76666666666665,10202.0,135.344,121.115,14.229,14.253209872561133,0.5640779489326538
171.0,165.76666666666665,10262.0,135.286,121.216,14.070000000000007,14.094080282774017,0.5577803153873561
172.0,166.76666666666665,10322.0,137.544,123.104,14.440000000000012,14.464858171899477,0.5724540368211574
173.0,167.76666666666665,10382.0,137.381,123.282,14.099000000000004,14.12341238062059,0.5589411479113364
174.0,168.76666666666665,10442.0,135.342,121.147,14.195000000000007,14.2197208008597,0.5627526020777416
175.0,169.76666666666665,10502.0,135.51,121.297,14.212999999999994,14.237894526357266,0.56347183640424
176.0,170.76666666666665,10562.0,137.456,123.077,14.37899999999999,14.404329323266122,0.5700585771953164
177.0,171.76666666666665,10622.0,135.259,121.035,14.22399999999999,14.249198774336508,0.5639192077031523
178.0,172.76666666666665,10682.0,137.069,123.143,13.925999999999988,13.95081035466488,0.5521103359291072
179.0,173.76666666666665,10742.0,136.715,123.148,13.567000000000007,13.59130667798672,0.5378827971229362
180.0,174.76666666666665,10802.0,137.055,122.88,14.175000000000011,14.200537977284313,0.5619934321873177
181.0,175.76666666666665,10862.0,136.649,122.926,13.722999999999999,13.747861122528594,0.5440785180000611
182.0,176.76666666666665,10922.0,134.845,120.968,13.876999999999995,13.902279137036814,0.5501896885841506
183.0,177.76666666666665,10982.0,136.506,122.916,13.590000000000003,13.614892469662879,0.5388162166902893
184.0,178.76666666666665,11042.0,134.368,121.049,13.318999999999988,13.343529520238011,0.5280768914929126
185.0,179.76666666666665,11102.0,136.274,122.627,13.647000000000006,13.672270317836698,0.5410869738882427
186.0,180.76666666666665,11162.0,134.052,120.652,13.399999999999991,13.424947193697855,0.5312990368666722
187.0,181.76666666666665,11222.0,134.363,120.866,13.497,13.522263003546467,0.5351503589835099
188.0,182.76666666666665,11282.0,134.191,120.719,13.472000000000008,13.497351182644927,0.5341644611426755
189.0,183.76666666666665,11342.0,136.343,122.761,13.581999999999994,13.60769425342094,0.5385313436623869
190.0,184.76666666666665,11402.0,136.501,122.81,13.691000000000003,13.717037627913534,0.5428586626989145
191.0,185.76666666666665,11462.0,136.257,122.487,13.77000000000001,13.796325833167414,0.5459965332974707
192.0,186.76666666666665,11522.0,136.035,122.728,13.307000000000002,13.332573983167515,0.5276433206035877
193.0,187.76666666666665,11582.0,134.14,120.95,13.189999999999984,13.215481281527055,0.5230093180478906
194.0,188.76666666666665,11642.0,133.649,120.68,12.968999999999994,12.994184280853792,0.5142513779515318
