"Frame","Time (aligned)","Time [ s]","Intensity Ch3-T2","background","Intensity (bg-subst)","bleach-Corrected","Normalized"
1.0,-5.266666666666667,0.0,144.908,127.514,17.39399999999999,17.394173940869695,1.0064140982373528
2.0,-4.266666666666667,60.0,144.14,126.767,17.37299999999999,17.373347463474612,1.0052090935881937
3.0,-3.2666666666666666,120.0,141.351,124.037,17.313999999999993,17.31451942779137,1.001805346754082
4.0,-2.2666666666666666,180.0,140.694,123.466,17.227999999999994,17.228689133782577,0.9968392691329225
5.0,-0.3333333333333333,296.0,140.903,123.798,17.10499999999999,17.105855271381596,0.989732192287449
6.0,0.7666666666666668,362.0,149.719,131.951,17.768,17.76906611198304,1.028105083253938
7.0,1.7666666666666668,422.0,146.68,129.201,17.479000000000013,17.480223572824563,1.0113928665905907
8.0,2.7666666666666666,482.0,146.212,128.796,17.415999999999997,17.417393335732683,1.0077575553294855
9.0,3.766666666666666,542.0,147.828,130.22,17.608000000000004,17.609584791314543,1.0188776114537876
10.0,4.766666666666667,602.0,145.627,128.486,17.14100000000002,17.142714185707877,0.9918648219340074
11.0,5.766666666666667,662.0,147.619,130.209,17.409999999999997,17.41191520533436,1.0074405947377612
12.0,6.766666666666667,722.0,147.16,129.817,17.34299999999999,17.345081284874585,1.0035736333045913
13.0,7.766666666666667,782.0,146.844,129.693,17.150999999999982,17.153229774932214,0.9924732461847146
14.0,8.766666666666666,842.0,144.546,127.439,17.107,17.10939514765642,0.9899370069225739
15.0,9.766666666666666,902.0,146.913,129.543,17.370000000000005,17.372605695422276,1.0051661754347918
16.0,10.766666666666666,962.0,146.469,129.296,17.173000000000002,17.175747899826128,0.9937761283127273
17.0,11.766666666666666,1022.0,146.152,129.21,16.94199999999998,16.94488038482575,0.9804183038646532
18.0,12.766666666666666,1082.0,144.544,127.173,17.37100000000001,17.374127061427096,1.0052542005517668
19.0,13.766666666666666,1142.0,144.571,127.182,17.388999999999996,17.392304223891323,1.006305917789512
20.0,14.766666666666666,1202.0,144.158,127.002,17.15599999999999,17.15943154314287,0.9928320759275021
21.0,15.766666666666667,1262.0,146.323,129.149,17.174000000000007,17.177606918713217,0.9938836897768829
22.0,16.76666666666667,1322.0,145.767,129.157,16.609999999999985,16.613654601991463,0.961253823925719
23.0,17.76666666666667,1382.0,144.056,126.908,17.14800000000001,17.151944493599384,0.99239888075305
24.0,18.76666666666667,1442.0,143.695,126.725,16.97,16.974073288775102,0.9821073837946914
25.0,19.76666666666667,1502.0,143.616,126.711,16.905000000000015,16.90922677832529,0.9783554124415221
26.0,20.76666666666667,1562.0,145.612,128.607,17.004999999999995,17.009421874818813,0.9841526269587578
27.0,21.76666666666667,1622.0,145.176,128.583,16.59299999999999,16.597480714869274,0.9603180147244079
28.0,22.76666666666667,1682.0,143.532,126.462,17.070000000000007,17.074780269206467,0.9879342155397103
29.0,23.76666666666667,1742.0,145.211,128.377,16.834000000000003,16.838882567938136,0.9742853482175083
30.0,24.76666666666667,1802.0,145.326,128.52,16.805999999999983,16.811042556345615,0.9726745456432067
31.0,25.76666666666667,1862.0,144.792,128.277,16.515000000000015,16.52012044362777,0.955842006384743
32.0,26.76666666666667,1922.0,144.496,128.245,16.251000000000005,16.256201152139965,0.9405718304825662
33.0,27.76666666666667,1982.0,143.033,126.25,16.782999999999987,16.788539303934865,0.9713725240261203
34.0,28.76666666666667,2042.0,144.604,128.264,16.340000000000003,16.34555654455905,0.9457418677024884
35.0,29.76666666666667,2102.0,143.014,126.193,16.821000000000012,16.826888380406473,0.9735913733573165
36.0,30.76666666666667,2162.0,142.848,126.138,16.710000000000008,16.71601668293796,0.9671764185680211
37.0,31.76666666666667,2222.0,142.277,126.054,16.222999999999985,16.229003620601304,0.9389982013311725
38.0,32.766666666666666,2282.0,141.985,125.837,16.14800000000001,16.154137406033303,0.934666497274456
39.0,33.766666666666666,2342.0,142.239,125.818,16.421000000000006,16.42740543897942,0.9504775844746574
40.0,34.766666666666666,2402.0,142.242,125.996,16.245999999999995,16.252499699853303,0.9403576671783521
41.0,35.766666666666666,2462.0,142.117,125.575,16.541999999999987,16.548783610545122,0.9575004361201139
42.0,36.766666666666666,2522.0,143.802,127.7,16.10199999999999,16.108764260395237,0.932041240472566
43.0,37.766666666666666,2582.0,141.477,125.556,15.921000000000006,15.927847502107452,0.9215735300330139
44.0,38.766666666666666,2642.0,143.869,127.663,16.206000000000003,16.213132208970908,0.9380798931391274
45.0,39.766666666666666,2702.0,141.434,125.553,15.881,15.888148058192469,0.9192765494357149
46.0,40.766666666666666,2762.0,141.163,125.47,15.693000000000012,15.700220440574023,0.9084031958368428
47.0,41.766666666666666,2822.0,143.538,127.64,15.89800000000001,15.905473816209238,0.9202790050389531
48.0,42.766666666666666,2882.0,143.789,127.331,16.457999999999984,16.465901736264975,0.9527049518937613
49.0,43.766666666666666,2942.0,141.146,125.454,15.691999999999993,15.699690964132323,0.9083725607197385
50.0,44.766666666666666,3002.0,141.466,125.768,15.698000000000008,15.70585096257709,0.9087289736946236
51.0,45.766666666666666,3062.0,141.011,125.359,15.652000000000001,15.659984555888688,0.9060751771715109
52.0,46.766666666666666,3122.0,141.18,125.394,15.786000000000001,15.794210854637189,0.9138414119966846
53.0,47.766666666666666,3182.0,143.057,127.261,15.795999999999992,15.804374098940189,0.9144294498296475
54.0,48.766666666666666,3242.0,140.917,125.487,15.430000000000007,15.438334450099006,0.8932506652343041
55.0,49.766666666666666,3302.0,143.446,127.631,15.814999999999998,15.823700642457345,0.915547669408915
56.0,50.766666666666666,3362.0,142.898,127.517,15.381,15.389615772191055,0.8904318383983344
57.0,51.766666666666666,3422.0,141.473,125.667,15.806000000000012,15.815011988172643,0.9150449502687844
58.0,52.766666666666666,3482.0,140.293,125.327,14.966000000000008,14.974682797767953,0.866424121981185
59.0,53.766666666666666,3542.0,142.831,127.489,15.341999999999985,15.351054450800316,0.8882007087323768
60.0,54.766666666666666,3602.0,142.61,127.477,15.13300000000001,15.142082524484879,0.8761097469255894
61.0,55.766666666666666,3662.0,142.617,127.212,15.404999999999987,15.4143999166831,0.8918658307520005
62.0,56.766666666666666,3722.0,142.056,127.243,14.813000000000017,14.8221869076471,0.8576008220496905
63.0,57.766666666666666,3782.0,142.19,127.135,15.054999999999993,15.06448763829225,0.8716201639375811
64.0,58.766666666666666,3842.0,141.955,127.401,14.554000000000016,14.563317541295191,0.8426228310980084
65.0,59.766666666666666,3902.0,142.297,127.416,14.881,14.890675794292477,0.861563538607936
66.0,60.766666666666666,3962.0,141.826,126.941,14.884999999999991,14.894827342666337,0.8618037441403844
67.0,61.766666666666666,4022.0,141.618,127.17,14.447999999999993,14.457683403577951,0.8365109176599126
68.0,62.766666666666666,4082.0,142.536,126.997,15.539000000000001,15.549570113431265,0.8996866788205159
69.0,63.76666666666666,4142.0,142.356,127.083,15.272999999999996,15.28354200657401,0.8842944884136199
70.0,64.76666666666667,4202.0,141.5,126.934,14.566000000000003,14.57619976950284,0.8433681873379173
71.0,65.76666666666667,4262.0,139.579,124.96,14.619000000000014,14.629383175591169,0.8464453400593704
72.0,66.76666666666667,4322.0,139.938,124.632,15.305999999999983,15.317024288267511,0.8862317485819984
73.0,67.76666666666667,4382.0,139.572,124.605,14.966999999999999,14.977929898927728,0.8666119968637009
74.0,68.76666666666667,4442.0,141.553,126.739,14.813999999999993,14.824966417073876,0.8577616424187865
75.0,69.76666666666667,4502.0,139.572,124.478,15.094000000000008,15.105324746249003,0.8739829689387631
76.0,70.76666666666667,4562.0,140.88,126.54,14.33999999999999,14.350902542441341,0.8303326556490156
77.0,71.76666666666667,4622.0,138.932,124.326,14.605999999999995,14.617250951060262,0.8457433784800282
78.0,72.76666666666667,4682.0,138.73,124.328,14.401999999999987,14.413237942227692,0.8339393359879331
79.0,73.76666666666667,4742.0,138.851,124.369,14.482,14.493445300298367,0.8385800746754446
80.0,74.76666666666667,4802.0,140.715,126.039,14.676000000000002,14.687745497572605,0.8498221410415646
81.0,75.76666666666667,4862.0,139.305,124.312,14.99300000000001,15.00514924978191,0.8681868884646267
82.0,76.76666666666667,4922.0,138.399,124.295,14.104,14.115570023061148,0.8167164893347618
83.0,77.76666666666667,4982.0,140.164,125.957,14.206999999999994,14.21879670495532,0.8226891091513578
84.0,78.76666666666667,5042.0,138.499,124.167,14.331999999999994,14.344043937745663,0.8299358218307825
85.0,79.76666666666667,5102.0,140.52,126.096,14.424000000000007,14.436265612146677,0.835271700015958
86.0,80.76666666666667,5162.0,137.666,124.19,13.475999999999999,13.487594344853688,0.780382278923471
87.0,81.76666666666667,5222.0,138.462,124.215,14.246999999999986,14.25940028334109,0.8250384023034926
88.0,82.76666666666667,5282.0,141.13,126.11,15.019999999999996,15.033223417450323,0.8698112391370885
89.0,83.76666666666667,5342.0,138.108,123.958,14.150000000000006,14.162599105770429,0.8194375574364543
90.0,84.76666666666667,5402.0,139.898,126.025,13.87299999999999,13.885491320250939,0.8034043049792695
91.0,85.76666666666667,5462.0,139.52,125.748,13.772000000000006,13.784538224026695,0.7975632331556708
92.0,86.76666666666667,5522.0,139.71,125.938,13.772000000000006,13.784676070098167,0.7975712088278807
93.0,87.76666666666667,5582.0,137.814,123.835,13.979,13.992006517093003,0.8095671958496722
94.0,88.76666666666667,5642.0,139.646,125.719,13.926999999999992,13.94009753487697,0.8065637803552105
95.0,89.76666666666667,5702.0,137.982,123.827,14.155000000000001,14.168453639466922,0.8197762964458942
96.0,90.76666666666667,5762.0,139.041,125.578,13.462999999999994,13.47593068573607,0.7797074281939733
97.0,91.76666666666667,5822.0,137.402,123.385,14.016999999999982,14.030603086430306,0.8118003649358676
98.0,92.76666666666667,5882.0,139.359,125.672,13.687000000000012,13.700419834644954,0.79269620507589
99.0,93.76666666666667,5942.0,139.294,125.502,13.792000000000016,13.805660841000561,0.7987853722228337
100.0,94.76666666666667,6002.0,137.426,123.865,13.560999999999993,13.574567782760724,0.7854144980089744
101.0,95.76666666666667,6062.0,137.763,123.71,14.053000000000011,14.067200700146408,0.8139178759214964
102.0,96.76666666666667,6122.0,136.959,123.393,13.566000000000003,13.579844379433206,0.7857197980076954
103.0,97.76666666666667,6182.0,138.706,125.577,13.12899999999999,13.142529836669725,0.7604171005241848
104.0,98.76666666666667,6242.0,136.838,123.184,13.653999999999996,13.668207546643677,0.7908324258075456
105.0,99.76666666666667,6302.0,136.751,123.322,13.429000000000002,13.44310785532789,0.7778083233914607
106.0,100.76666666666667,6362.0,137.09,123.401,13.689000000000007,13.70351803319823,0.7928754645632192
107.0,101.76666666666667,6422.0,138.464,125.379,13.084999999999994,13.099008443180573,0.7578989847383294
108.0,102.76666666666667,6482.0,138.574,125.432,13.14200000000001,13.156201027174344,0.7612081055417447
109.0,103.76666666666667,6542.0,136.779,123.411,13.367999999999995,13.382579064146507,0.7743061720963608
110.0,104.76666666666667,6602.0,138.215,125.221,12.994,13.008301264253296,0.7526507341462587
111.0,105.76666666666667,6662.0,136.628,123.345,13.282999999999987,13.297752316020686,0.7693981589011573
112.0,106.76666666666667,6722.0,137.828,125.155,12.673000000000002,12.687201711473875,0.7340721504231411
113.0,107.76666666666667,6782.0,138.309,125.064,13.245000000000005,13.25997530945635,0.7672124091136251
114.0,108.76666666666667,6842.0,138.004,125.127,12.876999999999995,12.891688150655142,0.7459035852466619
115.0,109.76666666666667,6902.0,138.34,125.159,13.180999999999997,13.196166869278317,0.7635204997421303
116.0,110.76666666666667,6962.0,136.569,123.165,13.403999999999982,13.419557661699235,0.776445726526288
117.0,111.76666666666667,7022.0,137.815,124.823,12.992000000000004,13.007209535843446,0.7525875675442197
118.0,112.76666666666667,7082.0,137.973,124.852,13.12100000000001,13.136491918434306,0.7600677510203344
119.0,113.76666666666667,7142.0,138.12,124.767,13.353000000000009,13.368899528343096,0.7735146842259568
120.0,114.76666666666667,7202.0,138.133,124.814,13.319000000000017,13.33499239351704,0.771552842368115
121.0,115.76666666666667,7262.0,136.477,123.03,13.447000000000003,13.463280717847917,0.7789755103651552
122.0,116.76666666666667,7322.0,136.151,122.766,13.385000000000005,13.401339665169095,0.7753916466595521
123.0,117.76666666666667,7382.0,137.618,124.719,12.899000000000001,12.914875531450337,0.7472451900284015
124.0,118.76666666666667,7442.0,136.022,122.737,13.284999999999997,13.301483617730888,0.7696140492710414
125.0,119.76666666666667,7502.0,138.37,124.887,13.483000000000004,13.499864287984122,0.7810922087995903
126.0,120.76666666666667,7562.0,138.464,124.876,13.587999999999994,13.605131670686006,0.7871829020625108
127.0,121.76666666666667,7622.0,138.371,125.081,13.290000000000006,13.306889022259115,0.7699268019974645
128.0,122.76666666666667,7682.0,135.974,122.954,13.019999999999996,13.036676270536272,0.754292491119475
129.0,123.76666666666667,7742.0,135.981,122.996,12.985,13.00176145881654,0.7522723458184397
130.0,124.76666666666667,7802.0,138.239,125.045,13.194000000000003,13.211163353762776,0.7643881852936526
131.0,125.76666666666667,7862.0,137.865,125.019,12.846000000000004,12.862839287325043,0.7442344112535632
132.0,126.76666666666667,7922.0,136.579,123.108,13.471000000000004,13.48879346110072,0.780451658906708
133.0,127.76666666666667,7982.0,135.826,122.878,12.947999999999993,12.965232296937273,0.7501587954056943
134.0,128.76666666666665,8042.0,136.475,123.081,13.393999999999991,13.411959990506217,0.7760061308646361
135.0,129.76666666666665,8102.0,135.389,122.747,12.64200000000001,12.65907822520827,0.7324449462129553
136.0,130.76666666666665,8162.0,137.732,124.801,12.930999999999997,12.948598124011868,0.749196354406682
137.0,131.76666666666665,8222.0,137.064,124.512,12.551999999999992,12.569208024805507,0.7272451225821105
138.0,132.76666666666665,8282.0,135.151,122.802,12.349000000000004,12.36605338412868,0.7154907446395568
139.0,133.76666666666665,8342.0,137.531,124.724,12.807000000000002,12.824814107936799,0.7420343023691501
140.0,134.76666666666665,8402.0,135.192,122.493,12.699000000000012,12.716791050829721,0.7357841678139345
141.0,135.76666666666665,8462.0,135.913,122.822,13.091000000000008,13.109471329226876,0.758504359621957
142.0,136.76666666666665,8522.0,134.99,122.778,12.212000000000003,12.229353357968218,0.7075813817675407
143.0,137.76666666666665,8582.0,137.19,124.832,12.358000000000004,12.37568458146215,0.7160479986265676
144.0,138.76666666666665,8642.0,137.579,124.941,12.638000000000005,12.656211829370147,0.7322790986600664
145.0,139.76666666666665,8702.0,135.86,122.845,13.015000000000015,13.033885438634139,0.7541310156402907
146.0,140.76666666666665,8762.0,136.881,124.349,12.531999999999996,12.550310083108185,0.7261517015885924
147.0,141.76666666666665,8822.0,137.127,124.669,12.458000000000013,12.476326726844057,0.7218710790633579
148.0,142.76666666666665,8882.0,134.904,122.627,12.277000000000001,12.295183412406104,0.7113902602517528
149.0,143.76666666666665,8942.0,134.926,122.523,12.402999999999992,12.421494244790772,0.718698512020659
150.0,144.76666666666665,9002.0,136.867,124.398,12.468999999999994,12.487717534641437,0.7225301428163459
151.0,145.76666666666665,9062.0,135.124,122.497,12.626999999999995,12.646081172659771,0.731692946321221
152.0,146.76666666666665,9122.0,137.039,124.444,12.594999999999985,12.614158957118656,0.7298459504318638
153.0,147.76666666666665,9182.0,136.89,124.357,12.532999999999987,12.552190166734016,0.7262604818430233
154.0,148.76666666666665,9242.0,136.706,124.41,12.295999999999992,12.314950428084382,0.7125339652259772
155.0,149.76666666666665,9302.0,134.372,122.591,11.78100000000002,11.799274709240933,0.6826973477857368
156.0,150.76666666666665,9362.0,134.288,122.49,11.798000000000016,11.816419243274348,0.6836893179027194
157.0,151.76666666666665,9422.0,136.521,124.221,12.299999999999983,12.319326167071377,0.7127871422622475
158.0,152.76666666666665,9482.0,136.389,124.038,12.351000000000013,12.370530004640788,0.7157497586065988
159.0,153.76666666666665,9542.0,134.205,122.244,11.961000000000013,11.980033117318479,0.6931558961987054
160.0,154.76666666666665,9602.0,134.461,121.91,12.551000000000016,12.571097673851593,0.7273544562847151
161.0,155.76666666666665,9662.0,134.22,122.141,12.078999999999994,12.098462853392837,0.7000081535373373
162.0,156.76666666666665,9722.0,136.225,123.966,12.259,12.2788756749499,0.7104467065686593
163.0,157.76666666666665,9782.0,135.885,123.88,12.004999999999995,12.024584106710881,0.6957335836455112
164.0,158.76666666666665,9842.0,135.636,123.606,12.030000000000001,12.049745386791571,0.6971893967866807
165.0,159.76666666666665,9902.0,135.642,123.777,11.864999999999995,11.884593410118088,0.6876338250049459
166.0,160.76666666666665,9962.0,134.105,122.474,11.630999999999986,11.650323494062741,0.6740791401367553
167.0,161.76666666666665,10022.0,133.865,121.973,11.89200000000001,11.911876232034356,0.6892123889947952
168.0,162.76666666666665,10082.0,135.654,123.856,11.798000000000002,11.817837298665149,0.6837713655436268
169.0,163.76666666666665,10142.0,133.619,122.048,11.570999999999998,11.590571523278983,0.6706219350979494
170.0,164.76666666666665,10202.0,134.375,122.199,12.176000000000002,12.196716804294356,0.7056930547997345
171.0,165.76666666666665,10262.0,134.239,122.23,12.009,12.029552957770653,0.6960210777096499
172.0,166.76666666666665,10322.0,136.029,123.865,12.164000000000001,12.18494008330922,0.705011662393821
173.0,167.76666666666665,10382.0,133.661,121.766,11.894999999999996,11.91559616054201,0.6894276213195532
174.0,168.76666666666665,10442.0,133.802,122.098,11.703999999999994,11.724382687795824,0.6783641505621104
175.0,169.76666666666665,10502.0,133.635,122.018,11.61699999999999,11.637347548912425,0.6733283615035401
176.0,170.76666666666665,10562.0,135.331,123.828,11.502999999999986,11.523263106302949,0.6667275196456838
177.0,171.76666666666665,10622.0,133.53,121.836,11.694000000000003,11.714716708878747,0.677804884138279
178.0,172.76666666666665,10682.0,134.969,123.576,11.393,11.413297599504316,0.6603649963813898
179.0,173.76666666666665,10742.0,135.185,123.771,11.414000000000001,11.434449356714111,0.6615888214811501
180.0,174.76666666666665,10802.0,135.109,123.88,11.229000000000013,11.249230401899514,0.6508721891179302
181.0,175.76666666666665,10862.0,135.033,123.741,11.291999999999987,11.312457028025412,0.654530435156713
182.0,176.76666666666665,10922.0,133.05,121.666,11.384000000000015,11.404737745624224,0.6598697295378443
183.0,177.76666666666665,10982.0,135.149,123.421,11.727999999999994,11.749481889934225,0.6798163719192422
184.0,178.76666666666665,11042.0,132.896,121.551,11.344999999999985,11.365894016600357,0.6576222599741487
185.0,179.76666666666665,11102.0,134.145,123.257,10.888000000000005,10.90816144358511,0.6311381902924832
186.0,180.76666666666665,11162.0,132.505,121.667,10.837999999999994,10.858177439201295,0.628246152598182
187.0,181.76666666666665,11222.0,133.079,121.685,11.394000000000005,11.41532671426306,0.6604823994674509
188.0,182.76666666666665,11282.0,133.28,121.525,11.754999999999995,11.777120186460136,0.6814155034082969
189.0,183.76666666666665,11342.0,134.906,123.494,11.412000000000006,11.43358907524959,0.6615390462289713
190.0,184.76666666666665,11402.0,134.574,123.587,10.987000000000009,11.00789514410095,0.6369087087781403
191.0,185.76666666666665,11462.0,134.927,123.483,11.443999999999988,11.465878927724589,0.6634073133206605
192.0,186.76666666666665,11522.0,135.05,123.6,11.450000000000017,11.472005118153472,0.6637617701886367
193.0,187.76666666666665,11582.0,132.995,121.515,11.480000000000004,11.502177794687706,0.6655075390391056
