"Frame","Time (aligned)","Time [ s]","Intensity Ch3-T2","background","Intensity (bg-subst)","bleach-Corrected","Normalized"
1.0,-4.333333333333333,0.0,144.423,127.852,16.570999999999998,16.571165710828552,1.0283143845199758
2.0,-3.3333333333333335,60.0,142.985,127.297,15.688000000000017,15.688313763137637,0.9735295025717612
3.0,-2.3333333333333335,120.0,143.076,126.839,16.236999999999995,16.237487117306717,1.0076081467384854
4.0,-1.3333333333333333,180.0,140.975,125.295,15.679999999999993,15.68062721254416,0.9730525179901969
5.0,-0.3333333333333333,240.0,143.152,126.756,16.395999999999987,16.396819820495327,1.0174954481795806
6.0,1.7333333333333336,364.0,149.627,133.071,16.55600000000001,16.55699338980141,1.0274349290955018
7.0,2.7333333333333334,424.0,148.667,132.557,16.110000000000014,16.111127739470437,0.9997669864896845
8.0,3.733333333333333,484.0,148.547,132.196,16.351,16.352308132324595,1.0147333003606542
9.0,4.733333333333333,544.0,148.088,132.347,15.740999999999985,15.742416753752948,0.9768868332789739
10.0,5.733333333333333,604.0,146.019,129.678,16.341000000000008,16.34263418170773,1.0141329887864383
11.0,6.733333333333333,664.0,147.568,131.788,15.780000000000001,15.7817358954725,0.9793267605431599
12.0,7.733333333333333,724.0,147.078,131.407,15.670999999999992,15.672880632835705,0.9725718083356051
13.0,8.733333333333333,784.0,147.419,131.71,15.709000000000003,15.711042302746806,0.9749399093365652
14.0,9.733333333333333,844.0,144.816,129.174,15.641999999999996,15.644190033298749,0.9707914292893033
15.0,10.733333333333333,904.0,146.709,131.05,15.658999999999992,15.66134902617255,0.9718562209583936
16.0,11.733333333333333,964.0,144.8,129.238,15.562000000000012,15.564490119204237,0.9658456958666487
17.0,12.733333333333333,1024.0,146.106,130.972,15.133999999999986,15.136572998698679,0.9392915392021788
18.0,13.733333333333333,1084.0,143.487,128.801,14.686000000000007,14.688643717927482,0.9114955391679918
19.0,14.733333333333333,1144.0,145.318,130.716,14.602000000000004,14.604774643582797,0.9062910908467334
20.0,15.733333333333333,1204.0,144.98,130.429,14.550999999999988,14.55391049103939,0.9031347444176694
21.0,16.733333333333334,1264.0,141.851,128.421,13.430000000000007,13.432820596152236,0.8335661404117893
22.0,17.733333333333334,1324.0,143.872,130.428,13.444000000000017,13.446958005368677,0.8344434294034511
23.0,18.733333333333334,1384.0,139.833,128.293,11.539999999999992,11.542654505256394,0.716272944850419
24.0,19.733333333333334,1444.0,139.089,128.154,10.935000000000002,10.937624714953198,0.678728160899262
25.0,20.733333333333334,1504.0,139.724,130.155,9.568999999999988,9.571392549056158,0.5939473908978037
26.0,21.733333333333334,1564.0,137.327,128.282,9.044999999999987,9.047352005747484,0.5614283491985321
27.0,22.733333333333334,1624.0,138.496,130.37,8.126000000000005,8.128194316219364,0.5043905348239963
28.0,23.733333333333334,1684.0,135.372,127.805,7.567000000000007,7.5691190566540945,0.4696974334772075
29.0,24.733333333333334,1744.0,136.489,129.678,6.811000000000007,6.812975476430244,0.4227753681333964
30.0,25.733333333333334,1804.0,133.91,127.683,6.22699999999999,6.228868380243013,0.38652893021883095
31.0,26.733333333333334,1864.0,135.466,129.94,5.5260000000000105,5.52771332555175,0.34301914695435193
32.0,27.733333333333334,1924.0,135.055,129.904,5.1510000000000105,5.152648583759344,0.31974471497764595
33.0,28.733333333333334,1984.0,132.524,127.653,4.870999999999995,4.872607695255122,0.3023669348668316
34.0,29.733333333333334,2044.0,131.832,127.755,4.076999999999998,4.078386415677308,0.2530819792678393
35.0,30.733333333333334,2104.0,131.873,127.571,4.3019999999999925,4.303505963528236,0.2670516464192861
36.0,31.733333333333338,2164.0,133.25,129.755,3.4950000000000045,3.4962584265031844,0.21695835372782837
37.0,32.733333333333334,2224.0,133.151,129.427,3.724000000000018,3.7253781349392594,0.23117624859854827
38.0,33.733333333333334,2284.0,132.954,129.759,3.1950000000000216,3.196214330708244,0.19833928581912902
39.0,34.733333333333334,2344.0,130.58,127.59,2.990000000000009,2.9911663274190725,0.1856151470965544
40.0,35.733333333333334,2404.0,132.145,129.123,3.02200000000002,3.0232090417922577,0.18760353974701713
41.0,36.733333333333334,2464.0,132.362,129.266,3.0960000000000036,3.0972696202543704,0.19219932736313486
42.0,37.733333333333334,2524.0,130.395,127.386,3.0090000000000146,3.0102640454309735,0.1868002452656175
43.0,38.733333333333334,2584.0,130.254,127.516,2.7379999999999853,2.739177593164371,0.1699781276681768
44.0,39.733333333333334,2644.0,132.155,129.338,2.8170000000000073,2.8182397527256056,0.17488428559132788
45.0,40.733333333333334,2704.0,132.321,129.461,2.859999999999985,2.861287289618426,0.17755557632473207
46.0,41.733333333333334,2764.0,130.417,127.466,2.9510000000000076,2.9523577722636865,0.18320690399494552
47.0,42.733333333333334,2824.0,132.123,129.332,2.790999999999997,2.7923120783142474,0.17327535831248667
48.0,43.733333333333334,2884.0,130.603,127.441,3.162000000000006,3.163518124320695,0.19631034108860954
49.0,44.733333333333334,2944.0,132.374,129.34,3.033999999999992,3.03548702429119,0.18836544305767478
50.0,45.733333333333334,3004.0,132.326,129.29,3.0360000000000014,3.0375183795632594,0.18849149766860504
51.0,46.733333333333334,3064.0,129.754,127.16,2.593999999999994,2.5953232774070507,0.16105132886899112
52.0,47.733333333333334,3124.0,130.199,127.332,2.8670000000000186,2.8684912276856145,0.1780026126569341
53.0,48.733333333333334,3184.0,129.903,126.976,2.9269999999999925,2.928551721169779,0.18172963285991092
54.0,49.733333333333334,3244.0,132.166,129.094,3.0720000000000027,3.0736593279782354,0.19073420393163087
55.0,50.733333333333334,3304.0,129.872,127.142,2.730000000000018,2.731501912988229,0.16950181764425712
56.0,51.733333333333334,3364.0,131.997,128.834,3.163000000000011,3.164771776051003,0.19638813574288735
57.0,52.733333333333334,3424.0,131.514,128.8,2.7139999999999986,2.71554742097308,0.1685117705996991
58.0,53.733333333333334,3484.0,129.72,127.084,2.6359999999999957,2.637529323460927,0.16367040136082872
59.0,54.733333333333334,3544.0,129.734,126.704,3.0300000000000153,3.031788227475247,0.18813591629790277
60.0,55.733333333333334,3604.0,129.35,126.621,2.728999999999999,2.730637891318258,0.1694482012646208
61.0,56.733333333333334,3664.0,129.197,127.006,2.1910000000000025,2.192336917718451,0.13604423656996611
62.0,57.733333333333334,3724.0,129.318,126.827,2.491000000000014,2.492544898869175,0.1546734742924073
63.0,58.733333333333334,3784.0,129.514,126.709,2.805000000000007,2.8067677067691723,0.17417239422033243
64.0,59.733333333333334,3844.0,129.469,126.611,2.85799999999999,2.8598297054432775,0.1774651267570849
65.0,60.733333333333334,3904.0,131.152,128.535,2.6169999999999902,2.6187016029610417,0.16250205773578716
66.0,61.733333333333334,3964.0,131.144,128.432,2.7120000000000175,2.713790510803587,0.16840274652552556
67.0,62.733333333333334,4024.0,128.794,126.219,2.575000000000017,2.576725828087866,0.15989727459278516
68.0,63.73333333333333,4084.0,129.384,126.462,2.921999999999983,2.9239876357195373,0.18144641109974258
69.0,64.73333333333333,4144.0,130.574,128.358,2.216000000000008,2.2175295676401583,0.13760755231677196
70.0,65.73333333333333,4204.0,131.365,128.232,3.1330000000000098,3.135193867764144,0.1945526952502783
71.0,66.73333333333333,4264.0,129.515,126.386,3.1289999999999907,3.1312223788511244,0.19430624673552166
72.0,67.73333333333333,4324.0,131.416,128.397,3.0190000000000055,3.0211744627126453,0.18747728508451975
73.0,68.73333333333333,4384.0,129.038,126.291,2.747000000000014,2.7490060421163016,0.170588026549834
74.0,69.73333333333333,4444.0,130.712,128.084,2.627999999999986,2.629945439723907,0.16319978771340082
75.0,70.73333333333333,4504.0,130.616,127.889,2.727000000000018,2.729046017160546,0.16934941840750103
76.0,71.73333333333333,4564.0,130.444,127.808,2.6359999999999815,2.638004121469675,0.1636998646846924
77.0,72.73333333333333,4624.0,130.402,127.891,2.5109999999999815,2.5129342145770273,0.15593872183134191
78.0,73.73333333333333,4684.0,128.425,126.226,2.1990000000000123,2.2007158891097696,0.13656418893538985
79.0,74.73333333333333,4744.0,130.034,127.47,2.563999999999993,2.5660263603069264,0.159233325126716
80.0,75.73333333333333,4804.0,130.121,127.553,2.568000000000012,2.570055221979192,0.15948333387583646
81.0,76.73333333333333,4864.0,128.355,125.745,2.609999999999985,2.612114956441709,0.162093327084017
82.0,77.73333333333333,4924.0,127.834,125.532,2.3020000000000067,2.3038884141439917,0.142966502051516
83.0,78.73333333333333,4984.0,130.026,127.61,2.416000000000011,2.4180061124214984,0.15004801174822904
84.0,79.73333333333333,5044.0,129.803,127.524,2.2789999999999964,2.2809151642563723,0.14154090992777218
85.0,80.73333333333333,5104.0,129.963,127.604,2.3589999999999947,2.3610060024302495,0.1465109019246926
86.0,81.73333333333333,5164.0,128.011,125.647,2.36399999999999,2.36603391445785,0.14682290618270952
87.0,82.73333333333333,5224.0,130.055,127.539,2.5160000000000053,2.5181898724563974,0.15626485873032545
88.0,83.73333333333333,5284.0,129.696,127.252,2.4440000000000026,2.44615166659445,0.15179456831047616
89.0,84.73333333333333,5344.0,127.973,125.571,2.402000000000001,2.4041387315943865,0.14918747921666323
90.0,85.73333333333333,5404.0,128.182,125.343,2.8389999999999844,2.8415562501400005,0.17633117774763388
91.0,86.73333333333333,5464.0,128.147,125.561,2.5859999999999843,2.5883543310581474,0.1606188748159342
92.0,87.73333333333333,5524.0,127.466,125.373,2.0929999999999893,2.0949264460292842,0.12999948443913742
93.0,88.73333333333333,5584.0,129.8,127.277,2.5230000000000103,2.5253474814096712,0.15670902013537438
94.0,89.73333333333333,5644.0,129.457,127.439,2.0180000000000007,2.0198978118318194,0.1253436246678647
95.0,90.73333333333333,5704.0,127.594,125.325,2.2689999999999912,2.271156574210549,0.1409353461013121
96.0,91.73333333333333,5764.0,129.433,127.216,2.2169999999999987,2.219129341920587,0.1377068254115715
97.0,92.73333333333333,5824.0,129.291,127.084,2.2069999999999936,2.209141828618937,0.13708705588099707
98.0,93.73333333333333,5884.0,127.768,125.334,2.4339999999999975,2.4363864891887013,0.1511885957090943
99.0,94.73333333333333,5944.0,129.75,126.917,2.8329999999999984,2.8358060587699048,0.17597435285053276
100.0,95.73333333333333,6004.0,129.486,126.956,2.529999999999987,2.532531265421759,0.15715480581900237
101.0,96.73333333333333,6064.0,129.541,126.901,2.6400000000000006,2.6426677469854476,0.16398926334774178
102.0,97.73333333333333,6124.0,129.293,127.2,2.0930000000000035,2.0951359491488826,0.1300124850376013
103.0,98.73333333333333,6184.0,127.518,124.883,2.635000000000005,2.637715448215768,0.16368195122799306
104.0,99.73333333333333,6244.0,127.337,124.949,2.3880000000000052,2.3904848118782174,0.14834019289449202
105.0,100.73333333333333,6304.0,129.728,126.971,2.757000000000005,2.7598963703283235,0.17126381975279784
106.0,101.73333333333333,6364.0,129.425,126.923,2.5020000000000095,2.504653526120395,0.15542486835825045
107.0,102.73333333333333,6424.0,127.635,124.919,2.716000000000008,2.7189076753288925,0.16872028929717794
108.0,103.73333333333333,6484.0,127.027,124.674,2.3529999999999944,2.355542612763745,0.14617187434628673
109.0,104.73333333333333,6544.0,129.121,126.728,2.393000000000015,2.3956097920783064,0.14865822066345505
110.0,105.73333333333333,6604.0,129.216,126.864,2.352000000000004,2.3545886234818996,0.14611267507700668
111.0,106.73333333333333,6664.0,128.749,126.705,2.043999999999997,2.0462700996722325,0.1269801421834235
112.0,107.73333333333333,6724.0,126.788,124.495,2.292999999999992,2.2955695987066593,0.1424502826300431
113.0,108.73333333333333,6784.0,127.161,124.602,2.5589999999999975,2.561893304409117,0.15897685066342793
114.0,109.73333333333333,6844.0,128.859,126.596,2.2630000000000052,2.2655812910563538,0.14058937503534874
115.0,110.73333333333333,6904.0,127.13,124.82,2.3100000000000023,2.3126580280732076,0.14351069552030782
116.0,111.73333333333333,6964.0,127.37,124.616,2.754000000000005,2.757196493607864,0.1710962804187204
117.0,112.73333333333333,7024.0,129.437,126.78,2.6570000000000107,2.6601105092931157,0.16507166416973204
118.0,113.73333333333333,7084.0,127.149,124.459,2.6899999999999977,2.693176073514841,0.1671235291932802
119.0,114.73333333333333,7144.0,127.192,124.562,2.6299999999999955,2.6331315629103766,0.16339750079892978
120.0,115.73333333333333,7204.0,128.695,126.158,2.536999999999992,2.5400462273708673,0.15762114256357665
121.0,116.73333333333333,7264.0,126.569,124.353,2.216000000000008,2.2186829828773025,0.13767912685174297
122.0,117.73333333333333,7324.0,129.05,126.324,2.7260000000000133,2.729327749514465,0.1693669011505485
123.0,118.73333333333333,7384.0,126.836,124.552,2.283999999999992,2.28681104844038,0.14190677571064328
124.0,119.73333333333333,7444.0,127.179,124.398,2.781000000000006,2.7844505789168,0.17278751738111467
125.0,120.73333333333333,7504.0,128.65,126.072,2.578000000000003,2.5812245149019577,0.16017643807730442
126.0,121.73333333333333,7564.0,128.314,126.085,2.228999999999999,2.231810310123573,0.1384937357738431
127.0,122.73333333333333,7624.0,128.401,125.93,2.4710000000000036,2.4741401635818137,0.15353137877724937
128.0,123.73333333333333,7684.0,128.097,126.046,2.051000000000002,2.053626960896308,0.1274366680762694
129.0,124.73333333333333,7744.0,128.759,125.991,2.7679999999999865,2.771573024105045,0.1719884079472069
130.0,125.73333333333333,7804.0,127.824,126.145,1.679000000000002,1.681184119369996,0.1043249366485441
131.0,126.73333333333333,7864.0,128.367,125.73,2.6369999999999862,2.6404567336661957,0.16385206015756026
132.0,127.73333333333333,7924.0,126.078,124.01,2.067999999999998,2.070731562434582,0.1284980845215709
133.0,128.73333333333332,7984.0,128.599,126.143,2.455999999999989,2.459268653172522,0.1526085355482169
134.0,129.73333333333332,8044.0,127.897,125.684,2.213000000000008,2.2159674077191567,0.1375106133599286
135.0,130.73333333333332,8104.0,128.606,125.927,2.678999999999988,2.6826190923376663,0.1664684216534104
136.0,131.73333333333332,8164.0,128.528,125.849,2.678999999999988,2.682645918662721,0.16647008634595037
137.0,132.73333333333332,8224.0,128.328,125.622,2.706000000000003,2.7097097606057807,0.16814951786308485
138.0,133.73333333333332,8284.0,126.495,123.809,2.686000000000007,2.6897092387861132,0.16690839671059826
139.0,134.73333333333332,8344.0,125.984,123.794,2.1899999999999977,2.1930462166300893,0.13608825171570116
140.0,135.73333333333332,8404.0,126.345,123.788,2.557000000000002,2.560582307029813,0.15889549745709763
141.0,136.73333333333332,8464.0,126.407,123.757,2.6499999999999915,2.6537391354710174,0.16467629214432672
142.0,137.73333333333332,8524.0,126.674,123.833,2.841000000000008,2.8450370856524567,0.17654717904108952
143.0,138.73333333333332,8584.0,128.04,125.576,2.4639999999999986,2.4675260405181025,0.15312094308394417
144.0,139.73333333333332,8644.0,126.113,123.716,2.3970000000000056,2.4004541664029357,0.14895883559235898
145.0,140.73333333333332,8704.0,128.383,125.731,2.6520000000000152,2.655848189262996,0.16480716829328715
146.0,141.73333333333332,8764.0,128.532,125.789,2.743000000000009,2.7470077049126935,0.17046402085660453
147.0,142.73333333333332,8824.0,126.59,124.026,2.564000000000007,2.5677718516317403,0.15934164061089393
148.0,143.73333333333332,8884.0,128.045,125.774,2.2709999999999866,2.274363568426659,0.14113435432686763
149.0,144.73333333333332,8944.0,126.164,123.648,2.5160000000000053,2.5197516342734554,0.15636177298305212
150.0,145.73333333333332,9004.0,128.149,125.44,2.709000000000003,2.7130665491493873,0.16835782149153308
151.0,146.73333333333332,9064.0,126.036,123.396,2.6400000000000006,2.643989411247471,0.16407127848149042
152.0,147.73333333333332,9124.0,127.971,125.444,2.527000000000001,2.5308439606700195,0.15705010106994852
153.0,148.73333333333332,9184.0,126.333,123.562,2.771000000000001,2.7752428749716755,0.1722161384823456
154.0,149.73333333333332,9244.0,125.721,123.541,2.180000000000007,2.1833597863715073,0.13548716572432515
155.0,150.73333333333332,9304.0,127.896,125.128,2.7680000000000007,2.772293726778614,0.17203313074698606
156.0,151.73333333333332,9364.0,126.06,123.565,2.4950000000000045,2.498895237495297,0.15506754099053624
157.0,152.73333333333332,9424.0,127.979,125.264,2.7150000000000034,2.7192658978535675,0.16874251859482725
158.0,153.73333333333332,9484.0,127.977,125.223,2.754000000000005,2.7583547593539595,0.17116815594930113
159.0,154.73333333333332,9544.0,125.812,123.389,2.423000000000002,2.4268556344170777,0.15059716386721567
160.0,155.73333333333332,9604.0,125.603,123.461,2.141999999999996,2.1454299432228527,0.1331334506029526
161.0,156.73333333333332,9664.0,127.716,125.225,2.4909999999999997,2.4950137401938544,0.1548266768547114
162.0,157.73333333333332,9724.0,126.113,123.347,2.7660000000000053,2.770484551505954,0.17192086339117907
163.0,158.73333333333332,9784.0,127.855,125.27,2.585000000000008,2.589216985909849,0.1606724063784302
164.0,159.73333333333332,9844.0,127.483,125.224,2.2590000000000003,2.262707799564602,0.1404110621341125
165.0,160.73333333333332,9904.0,126.254,123.266,2.9879999999999995,2.992934269653001,0.18572485575929265
166.0,161.73333333333332,9964.0,125.379,123.299,2.0799999999999983,2.0834556674104125,0.12928767171206282
167.0,162.73333333333332,10024.0,125.885,123.211,2.6740000000000066,2.6784693108358493,0.166210909292156
168.0,163.73333333333332,10084.0,125.577,123.114,2.462999999999994,2.4671413177328514,0.153097069327503
169.0,164.73333333333332,10144.0,127.214,125.064,2.1500000000000057,2.1536365720378434,0.1336427083465618
170.0,165.73333333333332,10204.0,127.579,124.613,2.965999999999994,2.9710464882996863,0.18436662177602292
171.0,166.73333333333332,10264.0,127.358,125.065,2.2930000000000064,2.2969243843923874,0.14253435309514417
172.0,167.73333333333332,10324.0,125.356,123.085,2.271000000000001,2.274909481190007,0.14116823063690156
173.0,168.73333333333332,10384.0,127.526,124.789,2.7369999999999948,2.7417391081465685,0.17013708104226777
174.0,169.73333333333332,10444.0,127.179,124.616,2.5630000000000024,2.567463502120706,0.15932250615510551
175.0,170.73333333333332,10504.0,124.955,123.012,1.9429999999999978,1.9464032269550515,0.1207829594659158
176.0,171.73333333333332,10564.0,127.298,124.531,2.766999999999996,2.77187420804488,0.17200709774749753
177.0,172.73333333333332,10624.0,127.473,124.76,2.712999999999994,2.7178062622873234,0.16865194172925738
178.0,173.73333333333332,10684.0,127.292,124.461,2.831000000000003,2.8360436675324103,0.1759890975288877
179.0,174.73333333333332,10744.0,125.598,122.801,2.796999999999997,2.8020111136086676,0.17387722650228468
180.0,175.73333333333332,10804.0,125.632,122.721,2.9110000000000014,2.916244518650767,0.18096591631731243
181.0,176.73333333333332,10864.0,125.583,122.749,2.834000000000003,2.8391341850357854,0.17618087785742878
182.0,177.73333333333332,10924.0,125.209,122.825,2.3840000000000003,2.3883428307772414,0.1482072734598584
183.0,178.73333333333332,10984.0,125.13,122.818,2.3119999999999976,2.316234833690989,0.14373265218476822
184.0,179.73333333333332,11044.0,125.591,122.744,2.846999999999994,2.852243302358854,0.17699435677296835
185.0,180.73333333333332,11104.0,127.22,124.299,2.9209999999999923,2.9264088516451143,0.18159665829464408
186.0,181.73333333333332,11164.0,125.523,122.486,3.036999999999992,3.0426540766612167,0.18881019046864841
187.0,182.73333333333332,11224.0,127.526,124.6,2.926000000000002,2.9314767391551446,0.18191114320877946
188.0,183.73333333333332,11284.0,125.241,122.569,2.671999999999997,2.677028084918882,0.16612147482703615
189.0,184.73333333333332,11344.0,125.261,122.781,2.4799999999999898,2.484691632195833,0.1541861442381075
190.0,185.73333333333332,11404.0,126.921,124.48,2.4410000000000025,2.4456423087967982,0.15176296039831522
191.0,186.73333333333332,11464.0,127.112,124.502,2.6099999999999994,2.6149898638029714,0.16227172784624078
