"Frame","Time (aligned)","Time [ s]","Intensity Ch3-T2","background","Intensity (bg-subst)","bleach-Corrected","Normalized"
1.0,-4.333333333333333,0.0,146.187,124.037,22.150000000000006,22.15022150110751,0.9984653687948291
2.0,-3.3333333333333335,60.0,145.625,123.317,22.308000000000007,22.308446164461635,1.0055976607604158
3.0,-2.3333333333333335,120.0,145.235,123.084,22.15100000000001,22.15166453996806,0.9985304166467439
4.0,-1.3333333333333333,180.0,142.887,121.201,21.686000000000007,21.686867457349038,0.9775787620328721
5.0,-0.3333333333333333,240.0,145.687,123.064,22.62300000000002,22.624131178279242,1.019827791765139
6.0,1.7333333333333336,364.0,152.42,129.022,23.397999999999996,23.399403922117237,1.0547747554356413
7.0,2.7333333333333334,424.0,150.919,128.489,22.430000000000007,22.43157015495479,1.0111477199582026
8.0,3.733333333333333,484.0,150.505,128.301,22.204000000000008,22.2057763910547,1.0009696161531096
9.0,4.733333333333333,544.0,150.676,128.2,22.476,22.47802293103053,1.0132416713976358
10.0,5.733333333333333,604.0,148.412,125.687,22.72500000000001,22.727272613628795,1.0244770974743018
11.0,6.733333333333333,664.0,150.931,127.757,23.174000000000007,23.176549280207848,1.0447291384105215
12.0,7.733333333333333,724.0,149.86,127.628,22.232000000000014,22.234668000076816,1.0022719629967247
13.0,8.733333333333333,784.0,150.255,127.691,22.563999999999993,22.566933510674055,1.0172494929306664
14.0,9.733333333333333,844.0,147.108,125.128,21.980000000000004,21.983077415414055,0.9909310160952208
15.0,10.733333333333333,904.0,149.721,127.226,22.495000000000005,22.498374503081408,1.014159059058627
16.0,11.733333333333333,964.0,147.476,125.239,22.236999999999995,22.240558204648778,1.0025374757041225
17.0,12.733333333333333,1024.0,149.239,127.131,22.108000000000004,22.111758679478708,0.9967315804721899
18.0,13.733333333333333,1084.0,147.088,124.851,22.236999999999995,22.24100302026101,1.0025575266541455
19.0,14.733333333333333,1144.0,148.97,126.961,22.009,22.01318210728761,0.9922880450654494
20.0,15.733333333333333,1204.0,148.979,126.98,21.99900000000001,22.00340024000934,0.9918471079073714
21.0,16.733333333333334,1264.0,146.265,124.746,21.51899999999999,21.52351946452716,0.9702155257832192
22.0,17.733333333333334,1324.0,148.554,127.072,21.482,21.486726559902525,0.9685570122968765
23.0,18.733333333333334,1384.0,145.707,124.652,21.054999999999993,21.05984320694744,0.949314394591254
24.0,19.733333333333334,1444.0,144.835,124.694,20.141000000000005,20.145834420107214,0.9081136273488808
25.0,20.733333333333334,1504.0,146.52,126.712,19.808000000000007,19.812952619051593,0.89310831689456
26.0,21.733333333333334,1564.0,143.689,124.588,19.101,19.105966905669757,0.8612395271847517
27.0,22.733333333333334,1624.0,144.205,126.621,17.584000000000017,17.588748320994505,0.7928478764008352
28.0,23.733333333333334,1684.0,140.467,124.277,16.190000000000012,16.19453383470725,0.7300008804391789
29.0,24.733333333333334,1744.0,140.645,126.362,14.283000000000015,14.287142670658227,0.6440214232155578
30.0,25.733333333333334,1804.0,137.859,124.005,13.854000000000013,13.858156823492362,0.6246840313941345
31.0,26.733333333333334,1864.0,138.831,126.25,12.580999999999989,12.58490071457951,0.5672894753039224
32.0,27.733333333333334,1924.0,137.185,126.414,10.771,10.77444727153403,0.48567967900432824
33.0,28.733333333333334,1984.0,134.133,123.921,10.212000000000003,10.215370516104572,0.46047818028493265
34.0,29.733333333333334,2044.0,133.577,123.94,9.637,9.640277137081734,0.43455470034371435
35.0,30.733333333333334,2104.0,132.269,123.983,8.286000000000001,8.288900607576716,0.37363871063925747
36.0,31.733333333333338,2164.0,133.591,125.957,7.6340000000000146,7.636748734742582,0.34424166554934654
37.0,32.733333333333334,2224.0,133.149,126.069,7.079999999999998,7.082620084685774,0.3192632125387937
38.0,33.733333333333334,2284.0,132.498,126.007,6.4909999999999854,6.493467048709553,0.29270596554633455
39.0,34.733333333333334,2344.0,129.733,123.837,5.896000000000001,5.898299888449097,0.26587761991853515
40.0,35.733333333333334,2404.0,131.213,125.689,5.524000000000001,5.5262100419789295,0.24910492869456377
41.0,36.733333333333334,2464.0,130.516,125.856,4.659999999999997,4.661910991726531,0.2101449268762464
42.0,37.733333333333334,2524.0,128.605,123.78,4.824999999999989,4.8270269256245735,0.21758785659255503
43.0,38.733333333333334,2584.0,127.981,123.892,4.088999999999999,4.090758648082239,0.1843990969572853
44.0,39.733333333333334,2644.0,129.144,125.717,3.4270000000000067,3.4285082117822663,0.15454683899761987
45.0,40.733333333333334,2704.0,129.513,125.925,3.588000000000008,3.589614963339507,0.16180904683156386
46.0,41.733333333333334,2764.0,127.173,123.883,3.2900000000000063,3.291513748135385,0.14837154058531307
47.0,42.733333333333334,2824.0,128.945,125.806,3.138999999999996,3.1404756767568687,0.14156319857241403
48.0,43.733333333333334,2884.0,127.044,123.9,3.1439999999999912,3.1455094822467484,0.14179010738479964
49.0,44.733333333333334,2944.0,128.606,126.018,2.587999999999994,2.5892684307401463,0.11671643366990728
50.0,45.733333333333334,3004.0,128.717,125.975,2.7420000000000186,2.743371342807151,0.12366292948357874
51.0,46.733333333333334,3064.0,126.442,123.609,2.8329999999999984,2.8344451984942896,0.1277682649946335
52.0,47.733333333333334,3124.0,126.504,123.618,2.88600000000001,2.887501110254851,0.13015986593190207
53.0,48.733333333333334,3184.0,126.727,123.617,3.1099999999999994,3.1116487368766776,0.14026376681922537
54.0,49.733333333333334,3244.0,128.484,125.686,2.798000000000002,2.7995113280218424,0.12619355117685258
55.0,50.733333333333334,3304.0,126.976,123.682,3.293999999999997,3.2958121983088495,0.1485653017916053
56.0,51.733333333333334,3364.0,128.344,125.713,2.6310000000000002,2.6324737726178187,0.11866400054230355
57.0,52.733333333333334,3424.0,128.054,125.451,2.6030000000000086,2.604484132937713,0.11740231176396634
58.0,53.733333333333334,3484.0,125.829,123.557,2.2719999999999914,2.2733181422242845,0.10247434487959656
59.0,54.733333333333334,3544.0,126.077,123.42,2.6569999999999965,2.6585680925418083,0.11984025400618217
60.0,55.733333333333334,3604.0,125.706,123.253,2.453000000000003,2.454472241628324,0.11064022686236163
61.0,56.733333333333334,3664.0,125.957,123.379,2.5779999999999887,2.5795730597344297,0.11627939550365952
62.0,57.733333333333334,3724.0,125.477,123.496,1.9810000000000088,1.9822286008269088,0.08935290380104498
63.0,58.733333333333334,3784.0,126.097,123.283,2.813999999999993,2.8157733785555834,0.12692659550702867
64.0,59.733333333333334,3844.0,125.508,123.028,2.4799999999999898,2.4815877080123596,0.11186251053757573
65.0,60.733333333333334,3904.0,127.387,125.236,2.1509999999999962,2.152398604497215,0.09702365578264456
66.0,61.733333333333334,3964.0,127.443,125.27,2.173000000000002,2.1744346533835404,0.09801697459333751
67.0,62.733333333333334,4024.0,125.369,122.891,2.4779999999999944,2.47966081631133,0.11177565205479262
68.0,63.73333333333333,4084.0,125.434,122.991,2.442999999999998,2.4446618049496456,0.11019800188163513
69.0,64.73333333333333,4144.0,126.842,124.925,1.9170000000000016,1.9183231864468282,0.08647223991541282
70.0,65.73333333333333,4204.0,127.02,124.786,2.2339999999999947,2.2355643474577276,0.10077251735551922
71.0,66.73333333333333,4264.0,125.029,122.773,2.2560000000000002,2.2576023287593987,0.10176592327368425
72.0,67.73333333333333,4324.0,127.209,125.201,2.0080000000000098,2.009446280598546,0.09057979494836685
73.0,68.73333333333333,4384.0,125.452,122.839,2.6129999999999995,2.6149081864032975,0.11787219674400283
74.0,69.73333333333333,4444.0,126.79,124.63,2.160000000000011,2.161598991553918,0.09743838156112794
75.0,70.73333333333333,4504.0,127.075,124.879,2.195999999999998,2.1976476177794333,0.09906334521564517
76.0,71.73333333333333,4564.0,127.005,124.719,2.2860000000000014,2.287738020364083,0.10312434961856093
77.0,72.73333333333333,4624.0,126.593,124.595,1.9980000000000047,1.9995390524591594,0.09013320689969057
78.0,73.73333333333333,4684.0,125.124,122.537,2.586999999999989,2.58901864717004,0.1167051741777874
79.0,74.73333333333333,4744.0,126.228,124.49,1.7379999999999995,1.7393735624857447,0.07840572905568775
80.0,75.73333333333333,4804.0,126.624,124.371,2.253,2.2548031211522948,0.10163974341333294
81.0,76.73333333333333,4864.0,124.454,122.29,2.1639999999999873,2.165753550091899,0.0976256565652446
82.0,77.73333333333333,4924.0,124.625,122.206,2.418999999999997,2.420984393490136,0.10913069538251755
83.0,78.73333333333333,4984.0,126.939,124.535,2.4039999999999964,2.4059961482869396,0.10845507036569103
84.0,79.73333333333333,5044.0,126.989,124.248,2.7409999999999997,2.7433034072956235,0.12365986715503416
85.0,80.73333333333333,5104.0,127.258,124.421,2.836999999999989,2.8394124751566796,0.12799217488756037
86.0,81.73333333333333,5164.0,124.295,122.41,1.8850000000000051,1.8866217972728758,0.08504323663292662
87.0,82.73333333333333,5224.0,126.447,124.284,2.1629999999999967,2.1648826288247887,0.09758639805380655
88.0,83.73333333333333,5284.0,126.288,124.509,1.7789999999999964,1.7805662090308971,0.08026256967564653
89.0,84.73333333333333,5344.0,124.404,122.436,1.9679999999999893,1.9697522996576706,0.08879050966663346
90.0,85.73333333333333,5404.0,124.151,122.137,2.013999999999996,2.0158134159147516,0.0908668062593528
91.0,86.73333333333333,5464.0,124.292,122.38,1.9120000000000061,1.9137407119037988,0.08626567574473985
92.0,87.73333333333333,5524.0,124.256,122.034,2.221999999999994,2.224045180638835,0.10025326795905337
93.0,88.73333333333333,5584.0,126.464,124.28,2.1839999999999975,2.1860320647636513,0.09853975101930366
94.0,89.73333333333333,5644.0,126.796,124.335,2.4610000000000127,2.4633144276105705,0.11103880601369313
95.0,90.73333333333333,5704.0,123.725,122.124,1.600999999999999,1.6025216726800797,0.0722368574433542
96.0,91.73333333333333,5764.0,126.749,124.055,2.6939999999999884,2.6965874817925304,0.12155405373083407
97.0,92.73333333333333,5824.0,126.315,124.031,2.283999999999992,2.2862165548553004,0.10305576652921082
98.0,93.73333333333333,5884.0,124.513,122.078,2.4350000000000023,2.437387469669063,0.10987009672464602
99.0,94.73333333333333,5944.0,126.358,124.022,2.3359999999999985,2.3383137851346616,0.10540415298852775
100.0,95.73333333333333,6004.0,126.26,123.946,2.314000000000007,2.31631515738577,0.10441252101016676
101.0,96.73333333333333,6064.0,126.189,124.11,2.0789999999999935,2.081100850751033,0.09380976747074368
102.0,97.73333333333333,6124.0,126.351,124.228,2.1230000000000047,2.125166564760191,0.09579611733127044
103.0,98.73333333333333,6184.0,124.113,122.034,2.0789999999999935,2.081142473184271,0.09381164368485519
104.0,99.73333333333333,6244.0,124.204,122.069,2.134999999999991,2.137221555008359,0.09633952003644669
105.0,100.73333333333333,6304.0,125.799,124.006,1.7930000000000064,1.7948836387372842,0.08090795634734492
106.0,101.73333333333333,6364.0,126.095,123.943,2.152000000000001,2.154282329420892,0.09710856843692808
107.0,102.73333333333333,6424.0,123.932,121.617,2.3149999999999977,2.3174783756945367,0.1044649553931635
108.0,103.73333333333333,6484.0,123.776,121.644,2.131999999999991,2.134303803830129,0.09620799658842713
109.0,104.73333333333333,6544.0,125.659,123.555,2.103999999999999,2.1062946103354463,0.09494542638293658
110.0,105.73333333333333,6604.0,126.071,123.687,2.3840000000000003,2.3866238428489965,0.10758182509848073
111.0,106.73333333333333,6664.0,125.558,123.583,1.9750000000000085,1.977193467149062,0.08912593511794034
112.0,107.73333333333333,6724.0,123.979,121.45,2.5289999999999964,2.5318340667811396,0.11412746527566531
113.0,108.73333333333333,6784.0,123.531,121.545,1.9860000000000042,1.988245448439438,0.08962412519583446
114.0,109.73333333333333,6844.0,125.776,123.637,2.138999999999996,2.1414398504505168,0.09652966810851582
115.0,110.73333333333333,6904.0,123.552,121.543,2.0090000000000003,2.0113116789606362,0.09066388149637092
116.0,111.73333333333333,6964.0,123.671,121.501,2.1700000000000017,2.1725186605406894,0.09793060739830292
117.0,112.73333333333333,7024.0,125.899,123.664,2.2349999999999994,2.237616480342525,0.10086502133420551
118.0,113.73333333333333,7084.0,123.503,121.583,1.9200000000000017,1.922266937229927,0.0866500123399407
119.0,114.73333333333333,7144.0,123.559,121.304,2.2549999999999955,2.257685047286273,0.10176965197610095
120.0,115.73333333333333,7204.0,125.718,123.467,2.2510000000000048,2.253702821368487,0.10159014520821479
121.0,116.73333333333333,7264.0,123.613,121.274,2.3389999999999986,2.341831902955771,0.10556273915921421
122.0,117.73333333333333,7324.0,125.857,123.315,2.5420000000000016,2.5451031325259503,0.11472559485291549
123.0,118.73333333333333,7384.0,123.649,121.333,2.3160000000000025,2.3188504326567183,0.10452680359457692
124.0,119.73333333333333,7444.0,123.31,121.462,1.847999999999999,1.8502929413298213,0.0834056410655296
125.0,120.73333333333333,7504.0,125.001,123.037,1.9639999999999986,1.9664565350145213,0.08864194650848543
126.0,121.73333333333333,7564.0,125.231,123.059,2.171999999999997,2.174738444857961,0.09803066859935587
127.0,122.73333333333333,7624.0,125.313,122.963,2.3500000000000085,2.3529863959600466,0.1060655501568684
128.0,123.73333333333333,7684.0,125.037,123.098,1.9390000000000072,1.9414835091067537,0.08751623760658234
129.0,124.73333333333333,7744.0,124.912,123.113,1.7990000000000066,1.8013222075018132,0.0811981876633462
130.0,125.73333333333333,7804.0,125.177,123.077,2.1000000000000085,2.1027317752692087,0.09478482449332622
131.0,126.73333333333333,7864.0,125.022,122.771,2.2510000000000048,2.25395074231424,0.10160132073883062
132.0,127.73333333333333,7924.0,123.313,121.066,2.247,2.2499679984480223,0.10142179062338688
133.0,128.73333333333332,7984.0,125.268,123.086,2.182000000000002,2.1849039907257626,0.09848890083434222
134.0,129.73333333333332,8044.0,124.825,122.789,2.0360000000000014,2.038730068737546,0.091899820047098
135.0,130.73333333333332,8104.0,125.27,122.978,2.2920000000000016,2.295096289525182,0.10345603826245377
136.0,131.73333333333332,8164.0,125.319,122.971,2.347999999999999,2.3511954524151157,0.10598481980810008
137.0,132.73333333333332,8224.0,124.85,122.919,1.9309999999999974,1.9336472829747782,0.08716300409989115
138.0,133.73333333333332,8284.0,123.225,120.937,2.2879999999999967,2.291159619636114,0.10327858502333309
139.0,134.73333333333332,8344.0,123.353,120.917,2.435999999999993,2.439388394388533,0.1099602923932472
140.0,135.73333333333332,8404.0,123.024,120.927,2.096999999999994,2.099937856019358,0.09465888301621522
141.0,136.73333333333332,8464.0,122.951,120.884,2.066999999999993,2.0699165256673933,0.09330561173267131
142.0,137.73333333333332,8524.0,122.96,120.905,2.0549999999999926,2.057920172832017,0.09276485222571251
143.0,138.73333333333332,8584.0,125.404,122.792,2.6119999999999948,2.615737831912855,0.11790959466842664
144.0,139.73333333333332,8644.0,123.287,120.776,2.51100000000001,2.5146184446548943,0.11335143680595205
145.0,140.73333333333332,8704.0,125.458,122.913,2.5450000000000017,2.5486929267248457,0.11488741197914687
146.0,141.73333333333332,8764.0,125.227,122.972,2.2550000000000097,2.258294704549081,0.10179713349197282
147.0,142.73333333333332,8824.0,122.926,120.998,1.9279999999999973,1.930836244128695,0.08703629092286895
148.0,143.73333333333332,8884.0,125.246,122.826,2.4200000000000017,2.4235842516920085,0.10924788917122152
149.0,144.73333333333332,8944.0,122.984,120.816,2.167999999999992,2.1712327277841097,0.09787264141706073
150.0,145.73333333333332,9004.0,124.707,122.681,2.0259999999999962,2.029041280390049,0.09146307860728553
151.0,146.73333333333332,9064.0,123.136,120.435,2.7009999999999934,2.7050815908255306,0.12193694262013001
152.0,147.73333333333332,9124.0,124.475,122.649,1.8259999999999934,1.82877763046436,0.08243579555870502
153.0,148.73333333333332,9184.0,123.034,120.446,2.588000000000008,2.591962670670053,0.11683788190305931
154.0,149.73333333333332,9244.0,122.937,120.568,2.3689999999999998,2.3726510706027906,0.10695197454853492
155.0,150.73333333333332,9304.0,124.699,122.524,2.174999999999997,2.178373864069175,0.098194542363926
156.0,151.73333333333332,9364.0,122.867,120.382,2.4849999999999994,2.488879625320962,0.11219120823951027
157.0,152.73333333333332,9424.0,124.666,122.418,2.2479999999999905,2.2515321319980797,0.10149229705971413
158.0,153.73333333333332,9484.0,124.564,122.407,2.1569999999999965,2.160410753785937,0.09738481937615548
159.0,154.73333333333332,9544.0,122.926,120.281,2.644999999999996,2.6492088951849593,0.11941836953698792
160.0,155.73333333333332,9604.0,122.909,120.335,2.5740000000000123,2.5781216964778992,0.11621397241300942
161.0,156.73333333333332,9664.0,124.757,122.261,2.4960000000000093,2.500021796677593,0.11269346381434583
162.0,157.73333333333332,9724.0,123.096,120.475,2.6210000000000093,2.625249461134171,0.11833835030763441
163.0,158.73333333333332,9784.0,124.213,122.241,1.9719999999999942,1.9752169811273466,0.08903684107233491
164.0,159.73333333333332,9844.0,124.859,122.36,2.4989999999999952,2.5031017224931067,0.11283229760727624
165.0,160.73333333333332,9904.0,122.752,120.434,2.317999999999998,2.3218278571136715,0.10466101693453479
166.0,161.73333333333332,9964.0,122.567,120.373,2.1939999999999884,2.1976450645665504,0.09906323012448716
167.0,162.73333333333332,10024.0,122.857,120.453,2.4039999999999964,2.408018034124666,0.10854621089846293
168.0,163.73333333333332,10084.0,122.65,120.228,2.4220000000000113,2.426072379841254,0.1093600465051796
169.0,164.73333333333332,10144.0,124.702,122.286,2.415999999999997,2.4200864921132133,0.10909022068887145
170.0,165.73333333333332,10204.0,124.502,122.189,2.3130000000000024,2.316935444179769,0.10444048167333655
171.0,166.73333333333332,10264.0,124.451,122.246,2.2049999999999983,2.208773775658612,0.09956487895107748
172.0,167.73333333333332,10324.0,122.626,120.13,2.4960000000000093,2.5002968142009143,0.11270586077718588
173.0,168.73333333333332,10384.0,124.761,122.184,2.576999999999998,2.58146206857644,0.1163645463410902
174.0,169.73333333333332,10444.0,124.328,122.051,2.277000000000001,2.2809654289226864,0.10281906156485489
175.0,170.73333333333332,10504.0,122.461,120.09,2.370999999999995,2.375152882712518,0.10706474871427722
176.0,171.73333333333332,10564.0,124.595,122.19,2.405000000000001,2.4092365270502167,0.10860113689494667
177.0,172.73333333333332,10624.0,124.059,122.002,2.057000000000002,2.0606441140895844,0.0928876393053892
178.0,173.73333333333332,10684.0,123.834,121.881,1.953000000000003,1.9564794357791593,0.0881922088809389
179.0,174.73333333333332,10744.0,122.156,120.029,2.1270000000000095,2.1308107395944473,0.09605053975802344
180.0,175.73333333333332,10804.0,122.213,119.929,2.283999999999992,2.288114902301039,0.10314133832281186
181.0,176.73333333333332,10864.0,122.239,120.039,2.200000000000003,2.2039856058852254,0.09934904265804549
182.0,177.73333333333332,10924.0,121.981,119.929,2.0519999999999925,2.0557380405851013,0.09266648826675315
183.0,178.73333333333332,10984.0,122.465,119.918,2.546999999999997,2.5516652774268804,0.11502139660949226
184.0,179.73333333333332,11044.0,122.505,119.896,2.6089999999999947,2.613804979225237,0.1178224674822957
185.0,180.73333333333332,11104.0,124.458,121.575,2.8829999999999956,2.888338486577499,0.1301976123381297
186.0,181.73333333333332,11164.0,122.245,119.855,2.3900000000000006,2.3944495367864107,0.10793458384551652
187.0,182.73333333333332,11224.0,124.308,121.679,2.629000000000005,2.6339208295416556,0.11872922951642707
188.0,183.73333333333332,11284.0,121.866,119.848,2.0180000000000007,2.021797408445476,0.0911365466458657
189.0,184.73333333333332,11344.0,122.377,119.889,2.4879999999999995,2.492706766493249,0.1123637242534845
190.0,185.73333333333332,11404.0,124.138,121.816,2.3220000000000027,2.326415993865697,0.1048678363405603
191.0,186.73333333333332,11464.0,124.42,121.826,2.5940000000000083,2.5989592745995904,0.11715326776601638
192.0,187.73333333333332,11524.0,122.597,119.908,2.688999999999993,2.6941678395383897,0.12144498353505696
