"Frame","Time (aligned)","Time [ s]","Intensity Ch3-T2","background","Intensity (bg-subst)","bleach-Corrected","Normalized"
1.0,-5.3,0.0,147.984,125.08,22.90400000000001,22.904229041145214,1.02090273092241
2.0,-4.266666666666667,62.0,146.423,124.056,22.367000000000004,22.367447344473433,0.9969769354259995
3.0,-3.2666666666666666,122.0,147.962,125.543,22.418999999999983,22.419672580088633,0.9993047538200108
4.0,-2.2666666666666666,182.0,145.995,123.987,22.00800000000001,22.008880337606644,0.9809946451742131
5.0,-0.3333333333333333,298.0,146.531,124.056,22.47500000000001,22.476123778094227,1.0018209346573672
6.0,0.7666666666666668,364.0,156.661,132.928,23.733000000000004,23.73442402272026,1.057906741071169
7.0,1.7666666666666668,424.0,156.289,132.842,23.446999999999974,23.448641347446465,1.04516864309314
8.0,2.7666666666666666,484.0,153.712,130.564,23.147999999999996,23.149851914075573,1.0318507991285544
9.0,3.766666666666666,544.0,153.226,130.276,22.94999999999999,22.952065592950277,1.0230349339443048
10.0,4.766666666666667,604.0,152.655,129.899,22.756,22.758275713783792,1.0143972008640607
11.0,5.766666666666667,664.0,152.709,129.825,22.884000000000015,22.88651737845329,1.0201132747578354
12.0,6.766666666666667,724.0,155.321,131.701,23.620000000000005,23.622834570070808,1.0529329007927075
13.0,7.766666666666667,784.0,154.196,131.5,22.695999999999998,22.69895067178951,1.0117529251158899
14.0,8.766666666666666,844.0,153.373,131.397,21.976,21.97907685537485,0.9796662242809895
15.0,9.766666666666666,904.0,152.768,130.994,21.774,21.77726634496975,0.9706709902204455
16.0,10.766666666666666,964.0,151.283,130.75,20.532999999999987,20.536285542836406,0.9153571576681987
17.0,11.766666666666666,1024.0,147.727,128.587,19.140000000000015,19.14325407658869,0.8532660204551369
18.0,12.766666666666666,1084.0,147.661,130.644,17.016999999999996,17.020063335691937,0.7586297320318575
19.0,13.766666666666666,1144.0,145.515,130.56,14.954999999999984,14.95784171995483,0.6667110005394671
20.0,14.766666666666666,1204.0,141.665,128.254,13.411000000000001,13.413682468237884,0.5978836938344467
21.0,15.766666666666667,1264.0,141.434,130.325,11.109000000000009,11.111333134970607,0.4952618279053402
22.0,16.76666666666667,1324.0,140.474,130.132,10.341999999999985,10.34427549029474,0.4610720176821819
23.0,17.76666666666667,1384.0,137.421,128.026,9.394999999999982,9.397161098516785,0.4188565967952763
24.0,18.76666666666667,1444.0,136.426,127.8,8.62599999999999,8.628070488448666,0.38457617186873333
25.0,19.76666666666667,1504.0,137.114,129.731,7.38300000000001,7.384845980737987,0.3291623313595642
26.0,20.76666666666667,1564.0,136.374,129.595,6.778999999999996,6.780762769150056,0.3022367273889333
27.0,21.76666666666667,1624.0,136.181,129.265,6.916000000000025,6.917867572110914,0.30834785505508944
28.0,22.76666666666667,1684.0,133.003,127.308,5.694999999999979,5.6965948232648165,0.2539124631343073
29.0,23.76666666666667,1744.0,133.181,127.361,5.820000000000007,5.821688044754667,0.2594882024970885
30.0,24.76666666666667,1804.0,134.712,129.273,5.438999999999993,5.44063194477947,0.24250351323291455
31.0,25.76666666666667,1864.0,134.321,129.395,4.925999999999988,4.927527296718748,0.219633067102064
32.0,26.76666666666667,1924.0,132.022,127.005,5.016999999999996,5.018605696897798,0.2236926749283656
33.0,27.76666666666667,1984.0,131.269,127.463,3.8060000000000116,3.8072561872595094,0.16969958831236578
34.0,28.76666666666667,2044.0,131.117,127.31,3.806999999999988,3.8082946000695284,0.16974587314787232
35.0,29.76666666666667,2104.0,133.286,129.091,4.194999999999993,4.196468506973723,0.18704782209884643
36.0,30.76666666666667,2164.0,130.905,127.17,3.7349999999999994,3.7363448420570453,0.16653888005012613
37.0,31.76666666666667,2224.0,130.474,127.097,3.3769999999999953,3.378249721184157,0.15057762301884195
38.0,32.766666666666666,2284.0,131.004,127.219,3.7849999999999966,3.7864385733116146,0.16877169159545313
39.0,33.766666666666666,2344.0,132.505,129.151,3.353999999999985,3.3553083151048475,0.1495550632079226
40.0,34.766666666666666,2404.0,130.322,126.892,3.430000000000007,3.431372274436597,0.1529454372592411
41.0,35.766666666666666,2464.0,132.164,129.073,3.0909999999999798,3.092267569834039,0.13783063385872119
42.0,36.766666666666666,2524.0,132.574,129.146,3.4280000000000257,3.429440062391959,0.15285931340195918
43.0,37.766666666666666,2584.0,132.583,128.771,3.812000000000012,3.8136395124699307,0.16998411018507228
44.0,38.766666666666666,2644.0,131.911,128.78,3.1310000000000002,3.132377943125257,0.13961846044558254
45.0,39.766666666666666,2704.0,132.058,128.706,3.352000000000004,3.353508739440918,0.14947485130877913
46.0,40.766666666666666,2764.0,131.56,128.422,3.1380000000000052,3.1394438120513177,0.13993340511671717
47.0,41.766666666666666,2824.0,131.779,128.37,3.408999999999992,3.4106026065830375,0.1520196776279538
48.0,42.766666666666666,2884.0,132.128,128.035,4.092999999999989,4.09496511158904,0.1825235443613174
49.0,43.766666666666666,2944.0,131.686,128.645,3.040999999999997,3.0424904551316825,0.13561193475971267
50.0,44.766666666666666,3004.0,131.435,128.368,3.0670000000000073,3.068533883438911,0.1367727599956841
51.0,45.766666666666666,3064.0,131.696,128.466,3.2299999999999898,3.2316477201329095,0.14404317983967851
52.0,46.766666666666666,3124.0,129.504,126.334,3.1699999999999875,3.171648828658285,0.14136886881839392
53.0,47.766666666666666,3184.0,131.018,128.423,2.594999999999999,2.596375714532147,0.1157274079256221
54.0,48.766666666666666,3244.0,126.27,126.084,0.18599999999999284,0.18610046712367487,0.00829499542513291
55.0,49.766666666666666,3304.0,NA,NA,0.0,0.0,0.0
56.0,50.766666666666666,3364.0,NA,NA,0.0,0.0,0.0
57.0,51.766666666666666,3424.0,NA,NA,0.0,0.0,0.0
58.0,52.766666666666666,3484.0,NA,NA,0.0,0.0,0.0
59.0,53.766666666666666,3544.0,NA,NA,0.0,0.0,0.0
60.0,54.766666666666666,3604.0,NA,NA,0.0,0.0,0.0
61.0,55.766666666666666,3664.0,NA,NA,0.0,0.0,0.0
62.0,56.766666666666666,3724.0,NA,NA,0.0,0.0,0.0
63.0,57.766666666666666,3784.0,NA,NA,0.0,0.0,0.0
64.0,58.766666666666666,3844.0,NA,NA,0.0,0.0,0.0
65.0,59.766666666666666,3904.0,NA,NA,0.0,0.0,0.0
66.0,60.766666666666666,3964.0,NA,NA,0.0,0.0,0.0
67.0,61.766666666666666,4024.0,NA,NA,0.0,0.0,0.0
68.0,62.766666666666666,4084.0,NA,NA,0.0,0.0,0.0
69.0,63.76666666666666,4144.0,NA,NA,0.0,0.0,0.0
70.0,64.76666666666667,4204.0,NA,NA,0.0,0.0,0.0
71.0,65.76666666666667,4264.0,NA,NA,0.0,0.0,0.0
72.0,66.76666666666667,4324.0,NA,NA,0.0,0.0,0.0
73.0,67.76666666666667,4384.0,NA,NA,0.0,0.0,0.0
74.0,68.76666666666667,4444.0,NA,NA,0.0,0.0,0.0
75.0,69.76666666666667,4504.0,NA,NA,0.0,0.0,0.0
76.0,70.76666666666667,4564.0,NA,NA,0.0,0.0,0.0
77.0,71.76666666666667,4624.0,NA,NA,0.0,0.0,0.0
78.0,72.76666666666667,4684.0,NA,NA,0.0,0.0,0.0
79.0,73.76666666666667,4744.0,NA,NA,0.0,0.0,0.0
80.0,74.76666666666667,4804.0,NA,NA,0.0,0.0,0.0
81.0,75.76666666666667,4864.0,NA,NA,0.0,0.0,0.0
82.0,76.76666666666667,4924.0,NA,NA,0.0,0.0,0.0
83.0,77.76666666666667,4984.0,NA,NA,0.0,0.0,0.0
84.0,78.76666666666667,5044.0,NA,NA,0.0,0.0,0.0
85.0,79.76666666666667,5104.0,NA,NA,0.0,0.0,0.0
86.0,80.76666666666667,5164.0,NA,NA,0.0,0.0,0.0
87.0,81.76666666666667,5224.0,NA,NA,0.0,0.0,0.0
88.0,82.76666666666667,5284.0,NA,NA,0.0,0.0,0.0
89.0,83.76666666666667,5344.0,NA,NA,0.0,0.0,0.0
90.0,84.76666666666667,5404.0,NA,NA,0.0,0.0,0.0
91.0,85.76666666666667,5464.0,NA,NA,0.0,0.0,0.0
92.0,86.76666666666667,5524.0,NA,NA,0.0,0.0,0.0
93.0,87.76666666666667,5584.0,NA,NA,0.0,0.0,0.0
94.0,88.76666666666667,5644.0,NA,NA,0.0,0.0,0.0
95.0,89.76666666666667,5704.0,NA,NA,0.0,0.0,0.0
96.0,90.76666666666667,5764.0,NA,NA,0.0,0.0,0.0
97.0,91.76666666666667,5824.0,NA,NA,0.0,0.0,0.0
98.0,92.76666666666667,5884.0,NA,NA,0.0,0.0,0.0
99.0,93.76666666666667,5944.0,NA,NA,0.0,0.0,0.0
100.0,94.76666666666667,6004.0,NA,NA,0.0,0.0,0.0
101.0,95.76666666666667,6064.0,NA,NA,0.0,0.0,0.0
102.0,96.76666666666667,6124.0,NA,NA,0.0,0.0,0.0
103.0,97.76666666666667,6184.0,NA,NA,0.0,0.0,0.0
104.0,98.76666666666667,6244.0,NA,NA,0.0,0.0,0.0
105.0,99.76666666666667,6304.0,NA,NA,0.0,0.0,0.0
106.0,100.76666666666667,6364.0,NA,NA,0.0,0.0,0.0
107.0,101.76666666666667,6424.0,NA,NA,0.0,0.0,0.0
108.0,102.76666666666667,6484.0,NA,NA,0.0,0.0,0.0
109.0,103.76666666666667,6544.0,NA,NA,0.0,0.0,0.0
110.0,104.76666666666667,6604.0,NA,NA,0.0,0.0,0.0
111.0,105.76666666666667,6664.0,NA,NA,0.0,0.0,0.0
112.0,106.76666666666667,6724.0,NA,NA,0.0,0.0,0.0
113.0,107.76666666666667,6784.0,NA,NA,0.0,0.0,0.0
114.0,108.76666666666667,6844.0,NA,NA,0.0,0.0,0.0
115.0,109.76666666666667,6904.0,NA,NA,0.0,0.0,0.0
116.0,110.76666666666667,6964.0,NA,NA,0.0,0.0,0.0
117.0,111.76666666666667,7024.0,NA,NA,0.0,0.0,0.0
118.0,112.76666666666667,7084.0,NA,NA,0.0,0.0,0.0
119.0,113.76666666666667,7144.0,NA,NA,0.0,0.0,0.0
120.0,114.76666666666667,7204.0,NA,NA,0.0,0.0,0.0
121.0,115.76666666666667,7264.0,NA,NA,0.0,0.0,0.0
122.0,116.76666666666667,7324.0,NA,NA,0.0,0.0,0.0
123.0,117.76666666666667,7384.0,NA,NA,0.0,0.0,0.0
124.0,118.76666666666667,7444.0,NA,NA,0.0,0.0,0.0
125.0,119.76666666666667,7504.0,NA,NA,0.0,0.0,0.0
126.0,120.76666666666667,7564.0,NA,NA,0.0,0.0,0.0
127.0,121.76666666666667,7624.0,NA,NA,0.0,0.0,0.0
128.0,122.76666666666667,7684.0,NA,NA,0.0,0.0,0.0
129.0,123.76666666666667,7744.0,NA,NA,0.0,0.0,0.0
130.0,124.76666666666667,7804.0,NA,NA,0.0,0.0,0.0
131.0,125.76666666666667,7864.0,NA,NA,0.0,0.0,0.0
132.0,126.76666666666667,7924.0,NA,NA,0.0,0.0,0.0
133.0,127.76666666666667,7984.0,NA,NA,0.0,0.0,0.0
134.0,128.76666666666665,8044.0,NA,NA,0.0,0.0,0.0
135.0,129.76666666666665,8104.0,NA,NA,0.0,0.0,0.0
136.0,130.76666666666665,8164.0,NA,NA,0.0,0.0,0.0
137.0,131.76666666666665,8224.0,NA,NA,0.0,0.0,0.0
138.0,132.76666666666665,8284.0,NA,NA,0.0,0.0,0.0
139.0,133.76666666666665,8344.0,NA,NA,0.0,0.0,0.0
140.0,134.76666666666665,8404.0,NA,NA,0.0,0.0,0.0
141.0,135.76666666666665,8464.0,NA,NA,0.0,0.0,0.0
142.0,136.76666666666665,8524.0,NA,NA,0.0,0.0,0.0
143.0,137.76666666666665,8584.0,NA,NA,0.0,0.0,0.0
144.0,138.76666666666665,8644.0,NA,NA,0.0,0.0,0.0
145.0,139.76666666666665,8704.0,NA,NA,0.0,0.0,0.0
146.0,140.76666666666665,8764.0,NA,NA,0.0,0.0,0.0
147.0,141.76666666666665,8824.0,NA,NA,0.0,0.0,0.0
148.0,142.76666666666665,8884.0,NA,NA,0.0,0.0,0.0
149.0,143.76666666666665,8944.0,NA,NA,0.0,0.0,0.0
150.0,144.76666666666665,9004.0,NA,NA,0.0,0.0,0.0
151.0,145.76666666666665,9064.0,NA,NA,0.0,0.0,0.0
152.0,146.76666666666665,9124.0,NA,NA,0.0,0.0,0.0
153.0,147.76666666666665,9184.0,NA,NA,0.0,0.0,0.0
154.0,148.76666666666665,9244.0,NA,NA,0.0,0.0,0.0
155.0,149.76666666666665,9304.0,NA,NA,0.0,0.0,0.0
156.0,150.76666666666665,9364.0,NA,NA,0.0,0.0,0.0
157.0,151.76666666666665,9424.0,NA,NA,0.0,0.0,0.0
158.0,152.76666666666665,9484.0,NA,NA,0.0,0.0,0.0
159.0,153.76666666666665,9544.0,NA,NA,0.0,0.0,0.0
160.0,154.76666666666665,9604.0,NA,NA,0.0,0.0,0.0
161.0,155.76666666666665,9664.0,NA,NA,0.0,0.0,0.0
162.0,156.76666666666665,9724.0,NA,NA,0.0,0.0,0.0
163.0,157.76666666666665,9784.0,NA,NA,0.0,0.0,0.0
164.0,158.76666666666665,9844.0,NA,NA,0.0,0.0,0.0
165.0,159.76666666666665,9904.0,NA,NA,0.0,0.0,0.0
166.0,160.76666666666665,9964.0,NA,NA,0.0,0.0,0.0
167.0,161.76666666666665,10024.0,NA,NA,0.0,0.0,0.0
168.0,162.76666666666665,10084.0,NA,NA,0.0,0.0,0.0
169.0,163.76666666666665,10144.0,NA,NA,0.0,0.0,0.0
170.0,164.76666666666665,10204.0,NA,NA,0.0,0.0,0.0
171.0,165.76666666666665,10264.0,NA,NA,0.0,0.0,0.0
172.0,166.76666666666665,10324.0,NA,NA,0.0,0.0,0.0
173.0,167.76666666666665,10384.0,NA,NA,0.0,0.0,0.0
174.0,168.76666666666665,10444.0,NA,NA,0.0,0.0,0.0
175.0,169.76666666666665,10504.0,NA,NA,0.0,0.0,0.0
176.0,170.76666666666665,10564.0,NA,NA,0.0,0.0,0.0
177.0,171.76666666666665,10624.0,NA,NA,0.0,0.0,0.0
178.0,172.76666666666665,10684.0,NA,NA,0.0,0.0,0.0
179.0,173.76666666666665,10744.0,NA,NA,0.0,0.0,0.0
180.0,174.76666666666665,10804.0,NA,NA,0.0,0.0,0.0
181.0,175.76666666666665,10864.0,NA,NA,0.0,0.0,0.0
182.0,176.76666666666665,10924.0,NA,NA,0.0,0.0,0.0
183.0,177.76666666666665,10984.0,NA,NA,0.0,0.0,0.0
184.0,178.76666666666665,11044.0,NA,NA,0.0,0.0,0.0
185.0,179.76666666666665,11104.0,NA,NA,0.0,0.0,0.0
186.0,180.76666666666665,11164.0,NA,NA,0.0,0.0,0.0
187.0,181.76666666666665,11224.0,NA,NA,0.0,0.0,0.0
188.0,182.76666666666665,11284.0,NA,NA,0.0,0.0,0.0
189.0,183.76666666666665,11344.0,NA,NA,0.0,0.0,0.0
190.0,184.76666666666665,11404.0,NA,NA,0.0,0.0,0.0
191.0,185.76666666666665,11464.0,NA,NA,0.0,0.0,0.0
192.0,186.76666666666665,11524.0,NA,NA,0.0,0.0,0.0
193.0,187.76666666666665,11584.0,NA,NA,0.0,0.0,0.0
194.0,188.76666666666665,11644.0,NA,NA,0.0,0.0,0.0
195.0,189.76666666666665,11704.0,NA,NA,0.0,0.0,0.0
196.0,190.76666666666665,11764.0,NA,NA,0.0,0.0,0.0
197.0,191.76666666666665,11824.0,NA,NA,0.0,0.0,0.0
198.0,192.76666666666665,11884.0,NA,NA,0.0,0.0,0.0
199.0,193.76666666666665,11944.0,NA,NA,0.0,0.0,0.0
200.0,194.76666666666665,12004.0,NA,NA,0.0,0.0,0.0
201.0,195.76666666666665,12064.0,NA,NA,0.0,0.0,0.0
202.0,196.76666666666665,12124.0,NA,NA,0.0,0.0,0.0
203.0,197.76666666666665,12184.0,NA,NA,0.0,0.0,0.0
204.0,198.76666666666665,12244.0,NA,NA,0.0,0.0,0.0
205.0,199.76666666666665,12304.0,NA,NA,0.0,0.0,0.0
206.0,200.76666666666665,12364.0,NA,NA,0.0,0.0,0.0
207.0,201.76666666666665,12424.0,NA,NA,0.0,0.0,0.0
208.0,202.76666666666665,12484.0,NA,NA,0.0,0.0,0.0
209.0,203.76666666666665,12544.0,NA,NA,0.0,0.0,0.0
210.0,204.76666666666665,12604.0,NA,NA,0.0,0.0,0.0
211.0,205.76666666666665,12664.0,NA,NA,0.0,0.0,0.0
212.0,206.76666666666665,12724.0,NA,NA,0.0,0.0,0.0
213.0,207.76666666666665,12784.0,NA,NA,0.0,0.0,0.0
214.0,208.76666666666665,12844.0,NA,NA,0.0,0.0,0.0
215.0,209.76666666666665,12904.0,NA,NA,0.0,0.0,0.0
216.0,210.76666666666665,12964.0,NA,NA,0.0,0.0,0.0
217.0,211.76666666666665,13024.0,NA,NA,0.0,0.0,0.0
218.0,212.76666666666665,13084.0,NA,NA,0.0,0.0,0.0
219.0,213.76666666666665,13144.0,NA,NA,0.0,0.0,0.0
220.0,214.76666666666665,13204.0,NA,NA,0.0,0.0,0.0
221.0,215.76666666666665,13264.0,NA,NA,0.0,0.0,0.0
222.0,216.76666666666665,13324.0,NA,NA,0.0,0.0,0.0
223.0,217.76666666666665,13384.0,NA,NA,0.0,0.0,0.0
224.0,218.76666666666665,13444.0,NA,NA,0.0,0.0,0.0
225.0,219.76666666666665,13504.0,NA,NA,0.0,0.0,0.0
226.0,220.76666666666665,13564.0,NA,NA,0.0,0.0,0.0
227.0,221.76666666666665,13624.0,NA,NA,0.0,0.0,0.0
228.0,222.76666666666665,13684.0,NA,NA,0.0,0.0,0.0
229.0,223.76666666666665,13744.0,NA,NA,0.0,0.0,0.0
230.0,224.76666666666665,13804.0,NA,NA,0.0,0.0,0.0
231.0,225.76666666666665,13864.0,NA,NA,0.0,0.0,0.0
232.0,226.76666666666665,13924.0,NA,NA,0.0,0.0,0.0
233.0,227.76666666666665,13984.0,NA,NA,0.0,0.0,0.0
234.0,228.76666666666665,14044.0,NA,NA,0.0,0.0,0.0
235.0,229.76666666666665,14104.0,NA,NA,0.0,0.0,0.0
236.0,230.76666666666665,14164.0,NA,NA,0.0,0.0,0.0
237.0,231.76666666666665,14224.0,NA,NA,0.0,0.0,0.0
238.0,232.76666666666665,14284.0,NA,NA,0.0,0.0,0.0
239.0,233.76666666666665,14344.0,NA,NA,0.0,0.0,0.0
240.0,234.76666666666665,14404.0,NA,NA,0.0,0.0,0.0
