"Frame","Time (aligned)","Time [ s]","Intensity Ch3-T2","background","Intensity (bg-subst)","bleach-Corrected","Normalized"
1.0,-4.333333333333333,0.0,151.043,132.586,18.456999999999994,18.45718457092285,0.9645581979153562
2.0,-3.3333333333333335,60.0,151.569,132.086,19.482999999999976,19.483389663896602,1.0181868827977567
3.0,-2.3333333333333335,120.0,151.208,132.066,19.141999999999996,19.14257426861398,1.0003761336971868
4.0,-1.3333333333333333,180.0,151.016,131.606,19.409999999999997,19.410776415528204,1.0143921705694712
5.0,-0.3333333333333333,240.0,148.509,129.327,19.181999999999988,19.182959123977888,1.0024866150202294
6.0,1.7333333333333336,364.0,155.608,136.885,18.723000000000013,18.724123413702088,0.9785082154901049
7.0,2.7333333333333334,424.0,153.149,134.157,18.99199999999999,18.993329486531476,0.9925767167546616
8.0,3.733333333333333,484.0,152.934,133.622,19.311999999999983,19.31354502180003,1.009310933094987
9.0,4.733333333333333,544.0,154.373,135.289,19.084000000000003,19.08571763729252,0.9974048500956043
10.0,5.733333333333333,604.0,154.524,135.297,19.227000000000004,19.228922796138207,1.0048886409965192
11.0,6.733333333333333,664.0,152.159,132.982,19.176999999999992,19.179109586025096,1.0022854411425839
12.0,7.733333333333333,724.0,153.444,134.793,18.650999999999982,18.653238254292553,0.9748038118549635
13.0,8.733333333333333,784.0,151.651,132.63,19.021000000000015,19.023472890734432,0.994151987756873
14.0,9.733333333333333,844.0,152.008,132.422,19.586000000000013,19.58874223195177,1.0236925265647445
15.0,10.733333333333333,904.0,152.82,134.129,18.691000000000003,18.693803860284266,0.9769237390660914
16.0,11.733333333333333,964.0,151.326,132.116,19.20999999999998,19.213073845901096,1.004060387108673
17.0,12.733333333333333,1024.0,153.082,134.046,19.036,19.03923639508579,0.9949757763087809
18.0,13.733333333333333,1084.0,151.164,131.84,19.323999999999984,19.327478633067567,1.0100390928488772
19.0,14.733333333333333,1144.0,150.466,132.096,18.370000000000005,18.373490631599505,0.960184417343354
20.0,15.733333333333333,1204.0,150.723,131.713,19.01000000000002,19.013802380225368,0.9936466143531612
21.0,16.733333333333334,1264.0,152.988,134.102,18.885999999999996,18.88996647646545,0.9871750457502193
22.0,17.733333333333334,1324.0,150.428,131.971,18.456999999999994,18.46106098669215,0.9647607764069155
23.0,18.733333333333334,1384.0,152.974,134.242,18.732,18.736308855499388,0.9791450172588494
24.0,19.733333333333334,1444.0,150.725,132.029,18.695999999999998,18.700487578487877,0.9772730250127686
25.0,20.733333333333334,1504.0,152.239,133.979,18.25999999999999,18.264565570672545,0.9544920778604924
26.0,21.733333333333334,1564.0,150.932,131.653,19.278999999999996,19.284013191686675,1.0077676224819396
27.0,22.733333333333334,1624.0,151.993,133.414,18.579000000000008,18.58401700726551,0.9711863629946944
28.0,23.733333333333334,1684.0,152.296,133.422,18.873999999999995,18.879285459929854,0.9866168640827017
29.0,24.733333333333334,1744.0,149.059,131.004,18.055000000000007,18.06023670928615,0.9438140095146058
30.0,25.733333333333334,1804.0,149.331,130.803,18.52799999999999,18.533559233843373,0.9685494787604896
31.0,26.733333333333334,1864.0,151.589,132.865,18.72399999999999,18.729805339781162,0.9788051485547584
32.0,27.733333333333334,1924.0,151.181,132.831,18.350000000000023,18.355872939620248,0.9592637303793351
33.0,28.733333333333334,1984.0,151.726,132.899,18.826999999999998,18.83321393524292,0.9842092018167432
34.0,29.733333333333334,2044.0,151.022,132.934,18.087999999999994,18.094150965604893,0.9455863423334464
35.0,30.733333333333334,2104.0,151.867,132.919,18.94799999999998,18.95463296070039,0.9905544662278929
36.0,31.733333333333338,2164.0,149.335,130.946,18.38900000000001,18.395621231750216,0.9613409453998477
37.0,32.733333333333334,2224.0,150.733,132.891,17.842000000000013,17.84860276143555,0.9327541829970731
38.0,33.733333333333334,2284.0,149.631,131.132,18.498999999999995,18.50603095579699,0.9671108722296775
39.0,34.733333333333334,2344.0,151.335,132.735,18.599999999999994,18.6072554147139,0.9724007842042085
40.0,35.733333333333334,2404.0,149.06,130.776,18.283999999999992,18.29131506291504,0.9558899856472096
41.0,36.733333333333334,2464.0,149.245,130.859,18.385999999999996,18.393539805554514,0.9612321716758431
42.0,37.733333333333334,2524.0,148.838,130.618,18.22,18.227654007229003,0.9525631080882861
43.0,38.733333333333334,2584.0,150.753,132.288,18.464999999999975,18.472941657333934,0.9653816510706666
44.0,39.733333333333334,2644.0,150.002,132.461,17.540999999999997,17.54871973821786,0.9170825280191003
45.0,40.733333333333334,2704.0,150.083,132.358,17.724999999999994,17.73297804492547,0.9267117246924012
46.0,41.733333333333334,2764.0,148.567,130.701,17.866000000000014,17.874220250512682,0.9340929331734289
47.0,42.733333333333334,2824.0,147.604,130.259,17.345000000000027,17.353154066055446,0.906862417167944
48.0,43.733333333333334,2884.0,147.912,130.481,17.43100000000001,17.439368888372538,0.9113679371365082
49.0,44.733333333333334,2944.0,148.453,130.244,18.209000000000003,18.217924596347544,0.9520546565966441
50.0,45.733333333333334,3004.0,148.331,130.19,18.14099999999999,18.150072768002975,0.9485087724981341
51.0,46.733333333333334,3064.0,147.951,129.916,18.034999999999997,18.044200195850525,0.9429759537189955
52.0,47.733333333333334,3124.0,149.265,132.051,17.214,17.222953607736255,0.9000582418636586
53.0,48.733333333333334,3184.0,149.114,132.054,17.060000000000002,17.069044196500364,0.8920150550074261
54.0,49.733333333333334,3244.0,149.234,131.771,17.463000000000022,17.472432566563782,0.9130958193999192
55.0,50.733333333333334,3304.0,149.01,131.867,17.143,17.152431243354176,0.8963727976162044
56.0,51.733333333333334,3364.0,147.442,129.926,17.51600000000002,17.525811707021575,0.9158853720171343
57.0,52.733333333333334,3424.0,148.89,131.992,16.897999999999996,16.907634605601736,0.883579914559803
58.0,53.733333333333334,3484.0,149.004,131.755,17.248999999999995,17.25900732184279,0.901942381092647
59.0,54.733333333333334,3544.0,146.756,129.906,16.849999999999994,16.859944433319352,0.8810876630217523
60.0,55.733333333333334,3604.0,146.779,129.851,16.927999999999997,16.938159847649498,0.8851751401126159
61.0,56.733333333333334,3664.0,146.717,129.882,16.835000000000008,16.845272482788726,0.8803209182287236
62.0,57.733333333333334,3724.0,148.799,132.014,16.784999999999997,16.795409926743822,0.8777151395945383
63.0,58.733333333333334,3784.0,146.692,129.717,16.974999999999994,16.98569761939628,0.8876594273164846
64.0,59.733333333333334,3844.0,148.515,131.78,16.734999999999985,16.745713828059266,0.8751180598933299
65.0,60.733333333333334,3904.0,148.208,131.674,16.533999999999992,16.54475059356439,0.8646158766070995
66.0,61.733333333333334,3964.0,148.837,131.618,17.218999999999994,17.230368291123394,0.9004457274857767
67.0,62.733333333333334,4024.0,148.016,131.4,16.615999999999985,16.627136450294238,0.8689212977939387
68.0,63.73333333333333,4084.0,145.821,129.362,16.459000000000003,16.47019592618349,0.8607197073219751
69.0,64.73333333333333,4144.0,148.105,131.292,16.812999999999988,16.824604973255333,0.8792408501568936
70.0,65.73333333333333,4204.0,146.335,129.217,17.117999999999995,17.129986794888747,0.8951998680893943
71.0,66.73333333333333,4264.0,148.299,131.355,16.944000000000017,16.95603451174614,0.8861092562408449
72.0,67.73333333333333,4324.0,146.166,129.224,16.942000000000007,16.954202632420525,0.8860135236433665
73.0,68.73333333333333,4384.0,145.959,129.432,16.527000000000015,16.539069114690907,0.8643189669130643
74.0,69.73333333333333,4444.0,146.336,129.277,17.059000000000026,17.07162833190656,0.8921500999261671
75.0,70.73333333333333,4504.0,147.326,131.144,16.181999999999988,16.1941410523255,0.8462932930099194
76.0,71.73333333333333,4564.0,147.976,131.185,16.790999999999997,16.803766010469506,0.878151822070628
77.0,72.73333333333333,4624.0,147.185,131.168,16.016999999999996,16.029337839458595,0.8376808045015698
78.0,73.73333333333333,4684.0,144.729,129.019,15.710000000000008,15.722258580224786,0.8216330797922244
79.0,74.73333333333333,4744.0,144.914,129.079,15.83499999999998,15.8475145926132,0.82817886217432
80.0,75.73333333333333,4804.0,145.097,128.824,16.272999999999996,16.286023608748902,0.8510950043816111
81.0,76.73333333333333,4864.0,144.968,128.763,16.204999999999984,16.218131367485856,0.8475470083352216
82.0,77.73333333333333,4924.0,146.976,131.002,15.97399999999999,15.987104051927016,0.835473699412705
83.0,78.73333333333333,4984.0,144.9,129.001,15.899000000000001,15.912201647926006,0.8315593576806208
84.0,79.73333333333333,5044.0,146.686,130.69,15.99600000000001,16.00944228496929,0.8366410782036074
85.0,80.73333333333333,5104.0,144.777,128.785,15.99199999999999,16.005598978747187,0.8364402299913906
86.0,81.73333333333333,5164.0,146.778,130.833,15.944999999999993,15.958718598151675,0.8339902975409111
87.0,82.73333333333333,5224.0,144.504,128.847,15.656999999999982,15.670627517110368,0.8189348803456765
88.0,83.73333333333333,5284.0,146.179,130.619,15.560000000000002,15.573698826599674,0.8138694619073423
89.0,84.73333333333333,5344.0,144.504,128.57,15.933999999999997,15.948187572533277,0.8334399542827803
90.0,85.73333333333333,5404.0,147.186,130.868,16.318000000000012,16.332692810773096,0.8535339008031987
91.0,86.73333333333333,5464.0,146.18,130.392,15.788000000000011,15.802373619004758,0.8258198297883895
92.0,87.73333333333333,5524.0,145.983,130.511,15.472000000000008,15.486240789758847,0.8092989725087967
93.0,88.73333333333333,5584.0,146.389,130.611,15.77800000000002,15.792680365311803,0.8253132678434685
94.0,89.73333333333333,5644.0,144.353,128.551,15.802000000000021,15.816860863511616,0.8265769219873974
95.0,90.73333333333333,5704.0,143.656,128.572,15.084000000000003,15.098336608810957,0.7890273998699031
96.0,91.73333333333333,5764.0,145.855,130.273,15.581999999999994,15.596965902483806,0.8150853813071468
97.0,92.73333333333333,5824.0,145.916,130.447,15.468999999999994,15.484012209744638,0.8091825086399896
98.0,93.73333333333333,5884.0,146.303,130.655,15.647999999999996,15.663342556624826,0.8185541739421176
99.0,94.73333333333333,5944.0,143.858,128.508,15.349999999999994,15.365204024750456,0.8029736847332213
100.0,95.73333333333333,6004.0,143.736,128.388,15.347999999999985,15.363355676558625,0.8028770914855251
101.0,96.73333333333333,6064.0,143.57,128.173,15.396999999999991,15.412558825884433,0.8054484100343047
102.0,97.73333333333333,6124.0,145.34,130.544,14.795999999999992,14.8110996194968,0.7740166168480999
103.0,98.73333333333333,6184.0,143.414,128.173,15.240999999999985,15.25670631736486,0.7973036784160786
104.0,99.73333333333333,6244.0,143.397,128.268,15.12899999999999,15.144742344600273,0.7914525277497203
105.0,100.73333333333333,6304.0,145.231,130.313,14.918000000000006,14.933672126426503,0.7804221613093248
106.0,101.73333333333333,6364.0,145.292,130.226,15.066000000000003,15.081978427070236,0.7881725339373242
107.0,102.73333333333333,6424.0,145.414,130.267,15.146999999999991,15.16321596399359,0.7924179448187496
108.0,103.73333333333333,6484.0,143.054,128.214,14.840000000000003,14.856035857804534,0.7763649499254798
109.0,104.73333333333333,6544.0,142.993,128.188,14.805000000000007,14.821146248106611,0.7745416458930102
110.0,105.73333333333333,6604.0,142.8,127.857,14.943000000000012,14.95944634383078,0.7817691019869033
111.0,106.73333333333333,6664.0,144.737,129.759,14.978000000000009,14.99463481061192,0.7836080240595195
112.0,107.73333333333333,6724.0,144.845,130.066,14.778999999999996,14.795561752850338,0.7732046199482275
113.0,108.73333333333333,6784.0,144.431,129.828,14.603000000000009,14.619510716798121,0.7640043288949986
114.0,109.73333333333333,6844.0,142.631,128.022,14.609000000000009,14.62566375653655,0.76432588199531
115.0,110.73333333333333,6904.0,142.508,128.026,14.482,14.49866387989444,0.7576889666153572
116.0,111.73333333333333,6964.0,144.451,129.889,14.561999999999983,14.578901721102977,0.7618821341715104
117.0,112.73333333333333,7024.0,142.045,127.674,14.370999999999981,14.387823910068184,0.75189655547368
118.0,113.73333333333333,7084.0,143.686,129.737,13.949000000000012,13.965469535114714,0.7298246423267218
119.0,114.73333333333333,7144.0,144.386,130.033,14.353000000000009,14.37009023667404,0.750969807410575
120.0,115.73333333333333,7204.0,142.62,127.825,14.795000000000002,14.81276465666224,0.7741036304032599
121.0,116.73333333333333,7264.0,141.792,127.502,14.290000000000006,14.30730136521505,0.7476885095251415
122.0,117.73333333333333,7324.0,144.171,129.618,14.552999999999997,14.57076549474828,0.7614569412716744
123.0,118.73333333333333,7384.0,143.777,129.726,14.050999999999988,14.06829336323812,0.7351981360996408
124.0,119.73333333333333,7444.0,144.096,129.571,14.525000000000006,14.543022171437055,0.760007096641556
125.0,120.73333333333333,7504.0,141.929,127.446,14.483000000000004,14.501115069559745,0.757817063892449
126.0,121.73333333333333,7564.0,141.614,127.198,14.416000000000011,14.434175608228562,0.7543188593887812
127.0,122.73333333333333,7624.0,143.577,129.559,14.018,14.035814169603325,0.7335007985473321
128.0,123.73333333333333,7684.0,144.16,129.213,14.947000000000003,14.96614440980843,0.7821191377371606
129.0,124.73333333333333,7744.0,141.099,127.393,13.705999999999989,13.723692148982623,0.71718954302606
130.0,125.73333333333333,7804.0,141.943,127.579,14.364000000000019,14.382685342841347,0.7516280179226175
131.0,126.73333333333333,7864.0,143.285,129.093,14.192000000000007,14.210603702764834,0.7426351644346588
132.0,127.73333333333333,7924.0,143.38,129.161,14.218999999999994,14.237781473045134,0.7440554537005646
133.0,128.73333333333332,7984.0,144.236,129.489,14.746999999999986,14.766626558768449,0.7716924890729734
134.0,129.73333333333332,8044.0,141.231,127.11,14.120999999999995,14.139934823498457,0.73894206343261
135.0,130.73333333333332,8104.0,140.804,127.294,13.510000000000005,13.52825081652932,0.7069759300719848
136.0,131.73333333333332,8164.0,142.683,129.096,13.586999999999989,13.605490890955776,0.7110124366534382
137.0,132.73333333333332,8224.0,140.674,127.313,13.361000000000004,13.379317114358392,0.6991927699251677
138.0,133.73333333333332,8284.0,142.868,129.228,13.639999999999986,13.658836193984532,0.7138002209527687
139.0,134.73333333333332,8344.0,143.483,129.041,14.442000000000007,14.462088338160639,0.7557775570779507
140.0,135.73333333333332,8404.0,143.173,129.04,14.13300000000001,14.152800056805765,0.7396143905801754
141.0,136.73333333333332,8464.0,142.756,129.106,13.650000000000006,13.669260075162082,0.7143449649252456
142.0,137.73333333333332,8524.0,140.823,126.764,14.059000000000012,14.078977960995356,0.735756504919033
143.0,138.73333333333332,8584.0,140.5,126.861,13.638999999999996,13.658517721845133,0.7137835778449488
144.0,139.73333333333332,8644.0,142.529,128.896,13.63300000000001,13.652645661481506,0.7134767085095621
145.0,140.73333333333332,8704.0,142.361,129.101,13.259999999999991,13.279240946314895,0.6939628667440303
146.0,141.73333333333332,8764.0,140.371,126.716,13.655000000000015,13.674950860584305,0.7146423609723236
147.0,142.73333333333332,8824.0,139.772,126.731,13.040999999999997,13.060184367055157,0.6825151392468939
148.0,143.73333333333332,8884.0,142.279,128.749,13.530000000000001,13.550039225368948,0.7081145754750818
149.0,144.73333333333332,8944.0,139.636,126.609,13.027000000000001,13.046424697806136,0.6817960695684309
150.0,145.73333333333332,9004.0,141.812,128.819,12.993000000000023,13.012504124436328,0.6800234066253847
151.0,146.73333333333332,9064.0,139.868,126.703,13.164999999999992,13.184894166315503,0.6890323769531499
152.0,147.73333333333332,9124.0,142.098,128.709,13.38900000000001,13.409366754812387,0.7007631409063396
153.0,148.73333333333332,9184.0,141.591,129.017,12.574000000000012,12.593252944746975,0.6581136640640993
154.0,149.73333333333332,9244.0,139.542,126.344,13.198000000000008,13.218340578225265,0.69078026058483
155.0,150.73333333333332,9304.0,141.562,128.641,12.92100000000002,12.941043079373744,0.6762889076511857
156.0,151.73333333333332,9364.0,140.083,126.352,13.730999999999995,13.752437076572281,0.7186917307215098
157.0,152.73333333333332,9424.0,139.355,126.444,12.910999999999987,12.931286190492571,0.6757790201805196
158.0,153.73333333333332,9484.0,139.177,126.329,12.847999999999999,12.868315885323023,0.6724882407096242
159.0,154.73333333333332,9544.0,139.323,126.411,12.912000000000006,12.932546410067395,0.6758448782813258
160.0,155.73333333333332,9604.0,139.686,126.515,13.171000000000006,13.192090467875007,0.6894084501097691
161.0,156.73333333333332,9664.0,141.123,128.314,12.808999999999997,12.829639100017294,0.6704670218074508
162.0,157.73333333333332,9724.0,140.999,128.432,12.567000000000007,12.58737503932584,0.6578064892705254
163.0,158.73333333333332,9784.0,140.988,128.377,12.61099999999999,12.631572692189158,0.6601162244435209
164.0,159.73333333333332,9844.0,139.145,126.599,12.546000000000006,12.566592321087873,0.6567204004808529
165.0,160.73333333333332,9904.0,138.92,126.609,12.310999999999993,12.331329917569638,0.6444257691353834
166.0,161.73333333333332,9964.0,139.363,126.287,13.075999999999993,13.097724186085848,0.6844769411704308
167.0,162.73333333333332,10024.0,140.686,128.281,12.405000000000001,12.425733657785576,0.6493592356231491
168.0,163.73333333333332,10084.0,139.164,126.043,13.120999999999981,13.143061806728696,0.6868462501783673
169.0,164.73333333333332,10144.0,141.223,128.3,12.923000000000002,12.944858335090688,0.6764882899656866
170.0,165.73333333333332,10204.0,138.658,126.432,12.225999999999985,12.246801876585296,0.6400083990553542
171.0,166.73333333333332,10264.0,140.447,127.967,12.480000000000004,12.50135905678889,0.6533113605151646
172.0,167.73333333333332,10324.0,140.724,128.233,12.490999999999985,12.512503007285043,0.6538937347536039
173.0,168.73333333333332,10384.0,139.182,126.202,12.97999999999999,13.002474835126964,0.6794992837189122
174.0,169.73333333333332,10444.0,140.839,128.015,12.824000000000012,12.846333184235636,0.671339441743851
175.0,170.73333333333332,10504.0,138.656,126.158,12.498000000000005,12.519890648730968,0.6542798071847781
176.0,171.73333333333332,10564.0,140.438,127.999,12.438999999999993,12.460911916830607,0.651197624247367
177.0,172.73333333333332,10624.0,138.774,126.062,12.712000000000003,12.734520164466105,0.6654961797643246
178.0,173.73333333333332,10684.0,140.154,127.979,12.174999999999997,12.196690799084088,0.6373896328819743
179.0,174.73333333333332,10744.0,139.549,128.06,11.489000000000004,11.509583726939589,0.6014819484387744
180.0,175.73333333333332,10804.0,139.921,127.706,12.21499999999999,12.237006800178314,0.6394965159341089
181.0,176.73333333333332,10864.0,138.546,126.035,12.510999999999996,12.53366541601364,0.6549996658748087
182.0,177.73333333333332,10924.0,139.84,127.66,12.180000000000007,12.20218778475957,0.6376769011040986
183.0,178.73333333333332,10984.0,139.897,127.961,11.935999999999993,11.957862878432376,0.624908670367323
184.0,179.73333333333332,11044.0,138.013,125.808,12.204999999999998,12.227477873301678,0.638998541581581
185.0,180.73333333333332,11104.0,137.932,126.178,11.75399999999999,11.775765026441883,0.6153923773874656
186.0,181.73333333333332,11164.0,139.751,127.737,12.01400000000001,12.03636683470793,0.6290112264372052
187.0,182.73333333333332,11224.0,139.662,127.732,11.930000000000007,11.952329972016702,0.6246195249550838
188.0,183.73333333333332,11284.0,140.17,127.867,12.302999999999983,12.32615139549289,0.6441551435747503
189.0,184.73333333333332,11344.0,137.53,125.814,11.716000000000008,11.738164178551017,0.6134273861428724
190.0,185.73333333333332,11404.0,139.945,127.73,12.21499999999999,12.238230562045405,0.6395604687832915
191.0,186.73333333333332,11464.0,137.549,125.373,12.176000000000002,12.199278383779689,0.6375248580579133
192.0,187.73333333333332,11524.0,138.192,125.562,12.63000000000001,12.65427289452212,0.6613025194697455
