"Frame","Time (aligned)","Time [ s]","Intensity Ch3-T2","background","Intensity (bg-subst)","bleach-Corrected","Normalized"
1.0,-4.333333333333333,0.0,144.026,130.352,13.674000000000007,13.674136740683709,0.9888003335556481
2.0,-3.3333333333333335,60.0,143.283,129.712,13.570999999999998,13.571271422714217,0.9813619655878245
3.0,-2.3333333333333335,120.0,145.563,131.531,14.031999999999982,14.032420966314445,1.0147084818014793
4.0,-1.3333333333333333,180.0,142.684,128.998,13.686000000000007,13.686547450948952,0.9896977733489349
5.0,-0.3333333333333333,240.0,142.627,128.447,14.180000000000007,14.180709017725302,1.0254314457061127
6.0,1.1666666666666667,330.0,147.806,133.663,14.143,14.14384860545791,1.0227660059320203
7.0,2.1666666666666665,390.0,147.374,133.185,14.188999999999993,14.189993264763855,1.0261028055690882
8.0,3.1666666666666665,450.0,148.995,135.102,13.893,13.894111484458787,1.0047070854145401
9.0,4.166666666666667,510.0,148.682,134.793,13.888999999999982,13.890250066252118,1.0044278596262393
10.0,5.166666666666667,570.0,147.83,134.487,13.343000000000018,13.344334366717241,0.9649517569639545
11.0,6.166666666666667,630.0,147.505,134.295,13.210000000000008,13.211453179923438,0.9553428899241758
12.0,7.166666666666667,690.0,147.274,134.101,13.173000000000002,13.174580854849395,0.9526765887145564
13.0,8.166666666666666,750.0,147.223,134.015,13.208000000000027,13.209717151612464,0.9552173547327771
14.0,9.166666666666666,810.0,144.723,131.94,12.783000000000015,12.784789745279262,0.9244901235307438
15.0,10.166666666666666,870.0,146.705,133.611,13.094000000000023,13.095964247314889,0.9469916866818123
16.0,11.166666666666666,930.0,144.654,131.701,12.953000000000003,12.955072645807245,0.9368035727841754
17.0,12.166666666666666,990.0,146.412,133.71,12.701999999999998,12.7041595235543,0.9186596135944857
18.0,13.166666666666666,1050.0,146.402,133.797,12.60499999999999,12.607269104213243,0.9116533008173331
19.0,14.166666666666666,1110.0,146.047,133.428,12.619,12.621397837787375,0.9126749738293672
20.0,15.166666666666666,1170.0,146.111,133.474,12.637,12.63952765275685,0.9139859719149563
21.0,16.166666666666668,1230.0,146.268,133.355,12.913000000000011,12.915712014751593,0.9339573378916286
22.0,17.166666666666668,1290.0,145.49,133.134,12.356000000000023,12.358718619037152,0.8936801879760432
23.0,18.166666666666668,1350.0,144.483,132.648,11.835000000000008,11.837722363059758,0.8560060531139156
24.0,19.166666666666668,1410.0,141.764,130.799,10.965000000000003,10.967631915817268,0.7930883171886027
25.0,20.166666666666668,1470.0,142.451,131.08,11.370999999999981,11.373843105373345,0.8224621465823112
26.0,21.166666666666668,1530.0,142.328,130.822,11.506,11.508991948936506,0.8322349917811835
27.0,22.166666666666668,1590.0,143.848,133.231,10.617000000000019,10.6198669770245,0.7679408366566759
28.0,23.166666666666668,1650.0,143.186,132.824,10.361999999999995,10.364901766228309,0.7495038639788851
29.0,24.166666666666668,1710.0,141.319,130.869,10.449999999999989,10.453030939464968,0.7558766359896494
30.0,25.166666666666668,1770.0,142.862,132.996,9.865999999999985,9.868960244014385,0.7136414799842737
31.0,26.166666666666668,1830.0,140.282,131.138,9.144000000000005,9.14683507941461,0.6614233679991304
32.0,27.166666666666668,1890.0,140.123,131.394,8.728999999999985,8.73179372697246,0.6314110143480827
33.0,28.166666666666668,1950.0,139.565,131.064,8.501000000000005,8.503805792930375,0.6149248149263117
34.0,29.166666666666668,2010.0,141.021,132.608,8.412999999999982,8.415860906326499,0.6085653689987526
35.0,30.166666666666668,2070.0,137.991,130.713,7.27800000000002,7.280547745829532,0.5264689227602467
36.0,31.166666666666668,2130.0,139.641,132.564,7.076999999999998,7.079548178644634,0.5119342985389133
37.0,32.166666666666664,2190.0,136.931,130.434,6.497000000000014,6.499404334774518,0.4699830999215777
38.0,33.166666666666664,2250.0,138.644,132.706,5.938000000000017,5.940256868777927,0.4295501854810439
39.0,34.166666666666664,2310.0,136.078,130.634,5.444000000000017,5.446123574070044,0.3938185575257368
40.0,35.166666666666664,2370.0,137.545,132.644,4.900999999999982,4.902960792132265,0.3545415230671626
41.0,36.166666666666664,2430.0,134.967,130.057,4.910000000000025,4.9120135127419315,0.3551961408560715
42.0,37.166666666666664,2490.0,136.141,131.966,4.174999999999983,4.176753868286541,0.3020282520544018
43.0,38.166666666666664,2550.0,135.652,131.98,3.671999999999997,3.673579299525061,0.2656428340303318
44.0,39.166666666666664,2610.0,133.263,129.644,3.6189999999999998,3.6205927103705853,0.2618112826846414
45.0,40.166666666666664,2670.0,132.858,129.623,3.2350000000000136,3.2364560775929005,0.23403370243773458
46.0,41.166666666666664,2730.0,135.197,131.941,3.2560000000000002,3.2574981045376274,0.23555528757734556
47.0,42.166666666666664,2790.0,132.591,129.693,2.897999999999996,2.8993623801342485,0.20965787771053823
48.0,43.166666666666664,2850.0,131.951,129.431,2.519999999999982,2.521209890350436,0.18231302113025827
49.0,44.166666666666664,2910.0,131.82,129.588,2.2319999999999993,2.2330939479953704,0.1614788620673481
50.0,45.166666666666664,2970.0,134.351,131.387,2.9639999999999986,2.965482370561756,0.21443912787859432
51.0,46.166666666666664,3030.0,131.603,129.431,2.171999999999997,2.173108002516623,0.15714117523395824
52.0,47.166666666666664,3090.0,133.532,131.335,2.1970000000000027,2.1981427370858952,0.15895147992536326
53.0,48.166666666666664,3150.0,131.876,129.177,2.6990000000000123,2.700430849141541,0.1952727967412156
54.0,49.166666666666664,3210.0,133.767,131.183,2.584000000000003,2.585395736815027,0.186954410023563
55.0,50.166666666666664,3270.0,133.781,131.106,2.6750000000000114,2.6764716546679472,0.19354026620298215
56.0,51.166666666666664,3330.0,131.428,128.98,2.4480000000000075,2.449371263918069,0.1771182465623573
57.0,52.166666666666664,3390.0,131.467,129.09,2.3770000000000095,2.3783552762170372,0.17198295841523492
58.0,53.166666666666664,3450.0,133.612,130.912,2.6999999999999886,2.7015664542278017,0.19535491429710788
59.0,54.166666666666664,3510.0,133.365,130.928,2.437000000000012,2.4384382542432923,0.17632766183893397
60.0,55.166666666666664,3570.0,133.422,130.994,2.4279999999999973,2.4294572371274183,0.1756782290529195
61.0,56.166666666666664,3630.0,133.336,130.688,2.6480000000000246,2.6496157727606144,0.19159827121701026
62.0,57.166666666666664,3690.0,131.315,128.834,2.4809999999999945,2.4825386969467584,0.17951664065946893
63.0,58.166666666666664,3750.0,131.056,128.877,2.179000000000002,2.180373202513375,0.1576665343345999
64.0,59.166666666666664,3810.0,130.71,128.591,2.1189999999999998,2.120356594063795,0.1533266302090795
65.0,60.166666666666664,3870.0,130.962,128.591,2.370999999999981,2.372541650982271,0.171562565180889
66.0,61.166666666666664,3930.0,130.915,128.719,2.195999999999998,2.197449838394039,0.15890137522986247
67.0,62.166666666666664,3990.0,131.012,128.889,2.1229999999999905,2.124422886613778,0.1536206708133244
68.0,63.166666666666664,4050.0,130.941,128.659,2.2820000000000107,2.28355228771802,0.16512759135056318
69.0,64.16666666666667,4110.0,133.266,130.915,2.350999999999999,2.352622749784292,0.17012219519467817
70.0,65.16666666666667,4170.0,131.038,128.808,2.230000000000018,2.231561546477522,0.16136805147939476
71.0,66.16666666666667,4230.0,130.637,128.548,2.0889999999999986,2.0904837166570833,0.1511664710923332
72.0,67.16666666666667,4290.0,132.968,130.694,2.274000000000001,2.2756378695622876,0.16455528616883983
73.0,68.16666666666667,4350.0,132.622,130.514,2.108000000000004,2.109539401813304,0.15254442044269637
74.0,69.16666666666667,4410.0,130.909,128.393,2.515999999999991,2.5178625290507464,0.1820709676805647
75.0,70.16666666666667,4470.0,133.05,130.616,2.4339999999999975,2.43582618473367,0.17613877860254654
76.0,71.16666666666667,4530.0,132.654,130.635,2.0190000000000055,2.020535023234949,0.14610836082919637
77.0,72.16666666666667,4590.0,130.535,128.416,2.1189999999999998,2.120632258338813,0.15334656396667284
78.0,73.16666666666667,4650.0,130.839,128.54,2.2990000000000066,2.3007939195376745,0.16637436338580217
79.0,74.16666666666667,4710.0,130.309,128.395,1.9139999999999873,1.9155126574209977,0.13851401302377536
80.0,75.16666666666667,4770.0,130.336,128.558,1.77800000000002,1.7794229691117731,0.1286731337240034
81.0,76.16666666666667,4830.0,132.369,130.047,2.3220000000000027,2.323881581937812,0.16804387194164058
82.0,77.16666666666667,4890.0,132.257,130.388,1.8689999999999998,1.870533208529586,0.13526147175477873
83.0,78.16666666666667,4950.0,130.293,128.284,2.0090000000000146,2.0106681621915574,0.14539487114601768
84.0,79.16666666666667,5010.0,132.447,130.162,2.2849999999999966,2.2869202063737655,0.16537113133801126
85.0,80.16666666666667,5070.0,132.346,130.292,2.054000000000002,2.055746642217782,0.14865457352660716
86.0,81.16666666666667,5130.0,130.268,128.08,2.187999999999988,2.1898824893543867,0.1583541672125346
87.0,82.16666666666667,5190.0,129.927,127.997,1.9299999999999926,1.931679830620357,0.13968308910918675
88.0,83.16666666666667,5250.0,129.791,128.097,1.6939999999999884,1.695491376109233,0.12260389595560744
89.0,84.16666666666667,5310.0,132.206,129.964,2.2419999999999902,2.2439962682075723,0.16226722758297746
90.0,85.16666666666667,5370.0,129.799,127.958,1.8410000000000082,1.84265764582874,0.13324574189779692
91.0,86.16666666666667,5430.0,129.78,127.628,2.152000000000001,2.1539592113059434,0.15575649322474786
92.0,87.16666666666667,5490.0,132.091,129.953,2.1380000000000052,2.1399678650791416,0.154744754927968
93.0,88.16666666666667,5550.0,129.849,127.699,2.1499999999999915,2.1520004300557862,0.15561485038540462
94.0,89.16666666666667,5610.0,131.836,129.869,1.967000000000013,1.96884984929297,0.14237091705465393
95.0,90.16666666666667,5670.0,131.471,129.744,1.7270000000000039,1.7286414295555936,0.12500103330524537
96.0,91.16666666666667,5730.0,131.718,129.736,1.9819999999999993,1.9839036335979274,0.14345948207519596
97.0,92.16666666666667,5790.0,129.555,127.794,1.76100000000001,1.7627089987303945,0.12746451779441603
98.0,93.16666666666667,5850.0,129.105,127.529,1.5759999999999934,1.5775452370424736,0.11407500789031366
99.0,94.16666666666667,5910.0,129.189,127.299,1.8899999999999864,1.8918720265002062,0.13680451836365573
100.0,95.16666666666667,5970.0,131.639,129.646,1.9930000000000234,1.9949939968322732,0.14426144530500246
101.0,96.16666666666667,6030.0,131.686,129.512,2.1740000000000066,2.1761968492221135,0.15736453504895878
102.0,97.16666666666667,6090.0,128.803,127.382,1.4209999999999923,1.4224501594555858,0.10285981622161561
103.0,98.16666666666667,6150.0,131.125,129.34,1.7849999999999966,1.7868394971784167,0.12920943561751186
104.0,99.16666666666667,6210.0,130.866,129.083,1.7830000000000155,1.7848552845807744,0.1290659537937155
105.0,100.16666666666667,6270.0,128.833,127.167,1.6659999999999968,1.667750218704015,0.12059788517659517
106.0,101.16666666666667,6330.0,130.876,129.019,1.8569999999999993,1.8589694636313165,0.13442527748311098
107.0,102.16666666666667,6390.0,128.78,127.011,1.7690000000000055,1.7708938430253356,0.12805637795512803
108.0,103.16666666666667,6450.0,128.456,127.273,1.1829999999999927,1.184278330174033,0.08563720182896598
109.0,104.16666666666667,6510.0,130.408,129.036,1.3719999999999857,1.3734962953327963,0.09931987815521948
110.0,105.16666666666667,6570.0,128.313,126.996,1.316999999999993,1.318449497077228,0.09533934954793023
111.0,106.16666666666667,6630.0,128.617,127.204,1.4129999999999967,1.4145693008008133,0.10228993778509543
112.0,107.16666666666667,6690.0,128.513,126.891,1.6219999999999999,1.6238176576983052,0.11742104617021357
113.0,108.16666666666667,6750.0,130.757,129.261,1.4960000000000093,1.4976914354810733,0.10830064223074873
114.0,109.16666666666667,6810.0,128.013,127.057,0.9560000000000031,0.9570904614449297,0.06920885650528875
115.0,110.16666666666667,6870.0,130.325,128.683,1.641999999999996,1.6438893861888284,0.11887246736065835
116.0,111.16666666666667,6930.0,130.501,129.243,1.2580000000000098,1.2594601267097725,0.09107372677395019
117.0,112.16666666666667,6990.0,130.935,128.764,2.1709999999999923,2.173541556520629,0.1571725262692671
118.0,113.16666666666667,7050.0,128.487,127.015,1.4719999999999942,1.4737379852096035,0.10656852706564517
119.0,114.16666666666667,7110.0,130.578,128.931,1.6469999999999914,1.6489610966210553,0.11923921146028132
120.0,115.16666666666667,7170.0,128.296,126.996,1.2999999999999972,1.3015609363745095,0.09411810869208606
