"Frame","Time (aligned)","Time [ s]","Intensity Ch3-T2","background","Intensity (bg-subst)","bleach-Corrected","Normalized"
1.0,-4.333333333333333,0.0,142.016,127.412,14.603999999999985,14.604146040730187,1.0151898403895387
2.0,-3.3333333333333335,60.0,141.361,127.019,14.341999999999985,14.342286842868404,0.9969870097316947
3.0,-2.3333333333333335,120.0,141.178,126.752,14.426000000000002,14.426432786491766,1.0028363149110722
4.0,-1.3333333333333333,180.0,143.117,129.081,14.036000000000001,14.03656145122895,0.9757348727922336
5.0,-0.3333333333333333,240.0,141.362,126.844,14.518,14.518725918147803,1.0092519621754608
6.0,1.1666666666666667,330.0,145.192,130.624,14.568000000000012,14.568874106222937,1.0127379538182337
7.0,2.1666666666666665,390.0,144.944,130.753,14.191000000000003,14.191993404768764,0.9865395401562439
8.0,3.1666666666666665,450.0,147.32,132.614,14.705999999999989,14.707176527060444,1.0223518820920223
9.0,4.166666666666667,510.0,146.6,132.363,14.236999999999995,14.238281387661575,0.9897571942274817
10.0,5.166666666666667,570.0,144.161,129.659,14.50200000000001,14.503450272512426,1.008190093839498
11.0,6.166666666666667,630.0,143.659,129.571,14.087999999999994,14.08954976523552,0.9794182924108004
12.0,7.166666666666667,690.0,143.584,129.449,14.134999999999991,14.13669630177606,0.9826956278176106
13.0,8.166666666666666,750.0,143.513,129.304,14.209000000000003,14.210847290071257,0.98785014556635
14.0,9.166666666666666,810.0,145.593,131.363,14.22999999999999,14.231992339460497,0.9893200185226066
15.0,10.166666666666666,870.0,143.016,129.241,13.774999999999977,13.777066404976477,0.9576963833213523
16.0,11.166666666666666,930.0,145.276,131.212,14.064000000000021,14.066250420028823,0.9777986661433281
17.0,12.166666666666666,990.0,144.896,131.129,13.766999999999996,13.76934058894442,0.9571593324097422
18.0,13.166666666666666,1050.0,145.103,130.805,14.298000000000002,14.3005738716415,0.994087382154436
19.0,14.166666666666666,1110.0,142.508,128.445,14.063000000000017,14.065672223853243,0.9777584735239471
20.0,15.166666666666666,1170.0,143.834,130.415,13.419000000000011,13.421684068397903,0.9329924029213846
21.0,16.166666666666668,1230.0,141.957,128.356,13.600999999999999,13.603856509923043,0.9456559034998843
22.0,17.166666666666668,1290.0,144.319,130.342,13.976999999999975,13.980075278268181,0.9718083036691689
23.0,18.166666666666668,1350.0,141.769,127.972,13.797000000000011,13.800173674958641,0.9593026577080647
24.0,19.166666666666668,1410.0,144.042,130.38,13.662000000000006,13.665279273497086,0.9499256338473562
25.0,20.166666666666668,1470.0,143.889,130.115,13.774000000000001,13.777443930473373,0.9577226265572024
26.0,21.166666666666668,1530.0,143.502,130.412,13.090000000000003,13.09340384248035,0.910172393506057
27.0,22.166666666666668,1590.0,141.143,128.107,13.036000000000001,13.039520195204968,0.9064267358603076
28.0,23.166666666666668,1650.0,143.446,130.328,13.117999999999995,13.121673554273594,0.912137528894542
29.0,24.166666666666668,1710.0,143.176,130.157,13.018999999999977,13.02277605750185,0.9052627870450274
30.0,25.166666666666668,1770.0,141.363,128.322,13.040999999999997,13.044912886903685,0.9068016024091372
31.0,26.166666666666668,1830.0,143.2,130.572,12.627999999999986,12.63191528683809,0.8780925655012256
32.0,27.166666666666668,1890.0,141.844,128.597,13.246999999999986,13.251239718318738,0.9211441666691871
33.0,28.166666666666668,1950.0,143.576,130.789,12.787000000000006,12.79122040632875,0.889166471389178
34.0,29.166666666666668,2010.0,142.531,130.514,12.016999999999996,12.021086474661322,0.835631527203634
35.0,30.166666666666668,2070.0,142.44,130.636,11.804000000000002,11.808132123079359,0.8208282587626166
36.0,31.166666666666668,2130.0,140.059,127.977,12.081999999999994,12.086350303007553,0.840168264599798
37.0,32.166666666666664,2190.0,141.08,129.942,11.138000000000005,11.142121822490143,0.7745313449364146
38.0,33.166666666666664,2250.0,141.054,129.716,11.337999999999994,11.342309258707292,0.7884471364420929
39.0,34.166666666666664,2310.0,139.191,127.912,11.278999999999996,11.283399667879468,0.7843521063086554
40.0,35.166666666666664,2370.0,140.297,129.856,10.441000000000003,10.445177235391384,0.7260840709798356
41.0,36.166666666666664,2430.0,140.454,129.927,10.527000000000015,10.5313169549153,0.7320719711193436
42.0,37.166666666666664,2490.0,137.675,127.549,10.126000000000005,10.130253813238253,0.7041925438902737
43.0,38.166666666666664,2550.0,136.603,127.278,9.325000000000003,9.329010612219834,0.6484950758502717
44.0,39.166666666666664,2610.0,136.435,127.147,9.287999999999997,9.292087619210276,0.6459284179111127
45.0,40.166666666666664,2670.0,136.642,127.356,9.286000000000001,9.290179640348548,0.6457957870300804
46.0,41.166666666666664,2730.0,138.256,129.342,8.913999999999987,8.918101383245814,0.6199312095746734
47.0,42.166666666666664,2790.0,138.225,129.333,8.891999999999996,8.89618022227528,0.6184073861450279
48.0,43.166666666666664,2850.0,135.428,127.037,8.390999999999991,8.395028646797872,0.5835704304955185
49.0,44.166666666666664,2910.0,135.222,127.047,8.175000000000011,8.179006731569078,0.5685539240164587
50.0,45.166666666666664,2970.0,134.511,126.758,7.753,7.7568774692865405,0.5392101104716486
51.0,46.166666666666664,3030.0,136.221,129.034,7.187000000000012,7.190666304828276,0.4998506148825165
52.0,47.166666666666664,3090.0,135.67,129.131,6.538999999999987,6.542401164226046,0.4547872347449418
53.0,48.166666666666664,3150.0,135.645,129.065,6.5800000000000125,6.5834883243243025,0.4576433598059949
54.0,49.166666666666664,3210.0,133.323,126.73,6.5930000000000035,6.596561181432453,0.4585521039177044
55.0,50.166666666666664,3270.0,135.284,128.796,6.4879999999999995,6.491569381489931,0.4512537238324468
56.0,51.166666666666664,3330.0,134.821,128.798,6.022999999999996,6.02637382458271,0.4189162080441596
57.0,52.166666666666664,3390.0,133.898,128.866,5.031999999999982,5.03486905760372,0.34999293356254246
58.0,53.166666666666664,3450.0,133.814,128.726,5.087999999999994,5.0909518959670725,0.3538914653608343
59.0,54.166666666666664,3510.0,133.594,128.712,4.882000000000005,4.884881229879239,0.33956670812879736
60.0,55.166666666666664,3570.0,132.963,128.705,4.257999999999981,4.260555566593292,0.2961674522808557
61.0,56.166666666666664,3630.0,132.52,128.699,3.820999999999998,3.823331521041619,0.2657743428323365
62.0,57.166666666666664,3690.0,132.309,128.749,3.5600000000000023,3.562207884373432,0.24762264383591515
63.0,58.166666666666664,3750.0,131.785,128.819,2.966000000000008,2.967869168726334,0.20630789498361363
64.0,59.166666666666664,3810.0,131.739,128.626,3.1129999999999995,3.1149929576784303,0.2165350301688706
65.0,60.166666666666664,3870.0,129.323,126.558,2.7650000000000006,2.7667978342328277,0.19233066034065135
66.0,61.166666666666664,3930.0,131.302,128.882,2.4199999999999875,2.4215977271919633,0.16833448551523547
67.0,62.166666666666664,3990.0,131.247,128.534,2.7130000000000223,2.71481831906889,0.18871736617366391
68.0,63.166666666666664,4050.0,130.904,128.614,2.289999999999992,2.2915577295680207,0.15929490976298522
69.0,64.16666666666667,4110.0,131.014,128.894,2.1200000000000045,2.1214633047820977,0.14747099815131126
70.0,65.16666666666667,4170.0,128.539,126.546,1.9929999999999808,1.994395588398934,0.1386380369939852
71.0,66.16666666666667,4230.0,130.859,128.594,2.265000000000015,2.2666087210284003,0.15756060911119935
72.0,67.16666666666667,4290.0,130.477,128.536,1.9410000000000025,1.94239802322797,0.13502348810222978
73.0,68.16666666666667,4350.0,130.284,128.4,1.8839999999999861,1.8853758221139598,0.13105965761969798
74.0,69.16666666666667,4410.0,128.289,126.464,1.8249999999999886,1.826350999808267,0.1269566173071443
75.0,70.16666666666667,4470.0,128.108,126.486,1.6219999999999999,1.6232169563015681,0.11283599590072235
76.0,71.16666666666667,4530.0,130.602,128.728,1.8739999999999952,1.8754247813483282,0.13036792285763818
77.0,72.16666666666667,4590.0,128.392,126.292,2.0999999999999943,2.101617622704812,0.14609144916814773
78.0,73.16666666666667,4650.0,127.697,126.442,1.2550000000000097,1.2559792818702895,0.08730790579184838
79.0,74.16666666666667,4710.0,129.886,128.219,1.6670000000000016,1.6683174503243614,0.11597110309567886
80.0,75.16666666666667,4770.0,130.172,128.217,1.954999999999984,1.956564625766844,0.13600826262654578
81.0,76.16666666666667,4830.0,129.977,128.335,1.641999999999996,1.643330558803563,0.1142341690535182
82.0,77.16666666666667,4890.0,129.626,128.211,1.414999999999992,1.4161607758530497,0.09844273181017171
83.0,78.16666666666667,4950.0,127.637,126.47,1.1670000000000016,1.1679690120843873,0.08118997657589794
84.0,79.16666666666667,5010.0,127.732,126.212,1.519999999999996,1.5212773364061793,0.105749784480873
85.0,80.16666666666667,5070.0,127.923,126.213,1.710000000000008,1.7114541179125708,0.11896969723200684
86.0,81.16666666666667,5130.0,127.63,126.325,1.3049999999999926,1.3061227827273645,0.09079357160823333
87.0,82.16666666666667,5190.0,129.599,128.386,1.2129999999999939,1.214055769193,0.08439364267610525
88.0,83.16666666666667,5250.0,127.962,126.257,1.7049999999999983,1.7065010603696924,0.11862539132857562
89.0,84.16666666666667,5310.0,127.539,126.063,1.475999999999999,1.47731422474326,0.1026937410677468
90.0,85.16666666666667,5370.0,129.54,128.087,1.453000000000003,1.4543082886415821,0.10109451078519982
91.0,86.16666666666667,5430.0,129.601,128.073,1.5279999999999916,1.5293911128603446,0.10631380399974714
92.0,87.16666666666667,5490.0,127.343,126.0,1.3430000000000035,1.34423612853194,0.09344297550601328
93.0,88.16666666666667,5550.0,128.965,127.888,1.0769999999999982,1.0780020758930637,0.07493603202222933
94.0,89.16666666666667,5610.0,127.883,125.856,2.027000000000001,2.0289062758092657,0.1410370063788515
95.0,90.16666666666667,5670.0,129.386,127.898,1.4879999999999995,1.489414271672679,0.10353486143703945
96.0,91.16666666666667,5730.0,127.53,125.883,1.6470000000000056,1.648581879180524,0.11459920834307702
97.0,92.16666666666667,5790.0,126.583,125.691,0.8919999999999959,0.8928656597771129,0.06206649427569729
98.0,93.16666666666667,5850.0,127.369,125.595,1.774000000000001,1.7757393721531483,0.1234384102132302
99.0,94.16666666666667,5910.0,127.46,125.773,1.6869999999999976,1.688670956987231,0.11738595290085191
100.0,95.16666666666667,5970.0,128.938,127.661,1.2769999999999868,1.2782776387128734,0.08885794954386499
101.0,96.16666666666667,6030.0,127.396,125.85,1.5460000000000065,1.5475622488028478,0.10757694890022391
102.0,97.16666666666667,6090.0,127.13,125.688,1.441999999999993,1.4434715903835018,0.10034121059604202
103.0,98.16666666666667,6150.0,127.191,125.473,1.7180000000000035,1.7197704516260683,0.11954779727782161
104.0,99.16666666666667,6210.0,128.757,127.409,1.347999999999999,1.3494026492511841,0.09380212004823511
105.0,100.16666666666667,6270.0,127.368,125.627,1.7409999999999997,1.742829010062242,0.12115068553935679
106.0,101.16666666666667,6330.0,128.654,127.325,1.3289999999999935,1.3304094868960736,0.09248183295948637
107.0,102.16666666666667,6390.0,126.931,125.396,1.5349999999999966,1.5366433290242372,0.10681793317986896
108.0,103.16666666666667,6450.0,128.53,127.347,1.183000000000007,1.1842783301740472,0.08232369942296666
109.0,104.16666666666667,6510.0,126.798,125.559,1.2390000000000043,1.2403512462954507,0.08622154148841189
110.0,105.16666666666667,6570.0,128.626,127.149,1.4770000000000039,1.478625593912742,0.1027848993356897
111.0,106.16666666666667,6630.0,127.121,125.466,1.6550000000000011,1.6568380699400942,0.11517312762298958
112.0,107.16666666666667,6690.0,127.265,125.294,1.9710000000000036,1.9732087566728518,0.13716525958828307
113.0,108.16666666666667,6750.0,126.751,125.159,1.5919999999999987,1.5937999767953557,0.11079110956184533
114.0,109.16666666666667,6810.0,128.633,127.256,1.3770000000000095,1.3785706751147209,0.09582970067077189
115.0,110.16666666666667,6870.0,126.878,125.198,1.6800000000000068,1.6819331113259743,0.11691757957437712
116.0,111.16666666666667,6930.0,126.889,125.287,1.6019999999999897,1.6038593982424696,0.11149037827805956
117.0,112.16666666666667,6990.0,128.711,127.362,1.349000000000018,1.3505792536832693,0.09388391030576053
118.0,113.16666666666667,7050.0,128.86,127.37,1.490000000000009,1.491759237746149,0.10369786896429956
119.0,114.16666666666667,7110.0,129.282,127.435,1.8470000000000084,1.849199238287261,0.12854488542703174
120.0,115.16666666666667,7170.0,128.815,127.124,1.6910000000000025,1.6930304180071567,0.11768899564807314
