"Frame","Time (aligned)","Time [ s]","Intensity Ch3-T2","background","Intensity (bg-subst)","bleach-Corrected","Normalized"
1.0,-231.132516666667,0.0,NA,303.269,-303.269,-303.269,-7.96647865194673
2.0,-226.830366666667,258.129,NA,303.819,-303.819,-303.946295653607,-7.98427031995605
3.0,-222.462966666667,520.173,NA,301.734,-301.734,-301.985074332571,-7.93275160955117
4.0,-218.339616666667,767.574,NA,303.954,-303.954,-304.330731771001,-7.99436895226682
5.0,-214.256933333333,1012.535,NA,305.239,-305.239,-305.739914807208,-8.0313863413657
6.0,-210.174716666667,1257.468,NA,302.978,-302.978,-303.59517934875,-7.97504695539523
7.0,-205.989683333333,1508.57,NA,303.24,-303.24,-303.976105723538,-7.98505339137356
8.0,-201.762083333333,1762.226,NA,299.35,-299.35,-300.191894554058,-7.88564712994849
9.0,-197.672166666667,2007.621,NA,301.204,-301.204,-302.165423795612,-7.93748915327376
10.0,-193.547683333333,2255.09,NA,300.82,-300.82,-301.892760926493,-7.93032665751582
11.0,-189.39265,2504.392,NA,301.028,-301.028,-302.212557315796,-7.93872728899596
12.0,-185.295716666667,2750.208,NA,298.773,-298.773,-300.057353508762,-7.88211291324595
13.0,-181.135133333333,2999.843,NA,298.609,-298.609,-299.999727275881,-7.88059914773072
14.0,-176.931866666667,3252.039,NA,299.108,-299.108,-300.606795797693,-7.89654604114641
15.0,-172.67215,3507.622,NA,299.153,-299.153,-300.756288686178,-7.90047302314831
16.0,-168.526133333333,3756.383,NA,301.667,-301.667,-303.387420696163,-7.96958940823218
17.0,-164.366033333333,4005.989,NA,299.201,-299.201,-301.008714878543,-7.90710392796439
18.0,-159.857633333333,4276.493,NA,299.235,-299.235,-301.142856082432,-7.91062764135787
19.0,-155.58295,4532.974,NA,299.031,-299.031,-301.036009862995,-7.9078209313869
20.0,-151.275883333333,4791.398,NA,298.987,-298.987,-301.088760988654,-7.90920663423299
21.0,-147.0141,5047.105,330.848,301.725,29.123,29.3370421513589,0.77064559849527
22.0,-142.864766666667,5296.065,331.016,301.32,29.696,29.9236210454542,0.78605425627926
23.0,-138.659133333333,5548.403,331.257,301.765,29.492,29.7272286626875,0.780895286108501
24.0,-134.45915,5800.402,332.525,302.481,30.044,30.2928417931746,0.795753200795746
25.0,-130.21205,6055.228,332.573,302.027,30.546,30.8082309663713,0.809291798033565
26.0,-125.981983333333,6309.032,330.426,300.037,30.389,30.6589365757748,0.80537003031071
27.0,-121.787483333333,6560.702,332.895,302.289,30.606,30.8868526126393,0.81135708550632
28.0,-117.596033333333,6812.189,330.332,299.035,31.297,31.5932542378421,0.829913329193866
29.0,-113.46745,7059.904,333.22,302.104,31.116,31.4194211048941,0.825346960911479
30.0,-109.28615,7310.782,331.994,299.741,32.253,32.5765820061115,0.855744059251289
31.0,-105.1663,7557.973,331.702,299.946,31.756,32.0834024597442,0.842788879764722
32.0,-100.8972,7814.119,332.182,300.071,32.111,32.4508407543862,0.852441001577941
33.0,-96.75785,8062.48,334.248,302.113,32.135,32.4837543915055,0.8533055996327
34.0,-92.5353833333333,8315.828,333.833,301.533,32.3,32.6591251114571,0.857912358307906
35.0,-88.38515,8564.842,331.996,299.515,32.481,32.8506425768015,0.862943270795305
36.0,-84.2957166666666,8810.208,332.883,300.465,32.418,32.7952930360499,0.861489310994624
37.0,-80.1940666666667,9056.307,335.324,302.513,32.811,33.2012148883703,0.872152345366318
38.0,-76.0542666666667,9304.695,334.133,299.944,34.189,34.6041775316888,0.909006332907002
39.0,-71.6623333333333,9568.211,332.864,299.713,33.151,33.5617677415438,0.881623595667883
40.0,-67.4826166666666,9818.994,335.408,302.411,32.997,33.4139001841757,0.877739308981514
41.0,-63.34035,10067.53,336.333,302.281,34.052,34.4904086563602,0.906017773850319
42.0,-59.1633666666667,10318.149,336.1,302.605,33.495,33.9341677071119,0.89140605406516
43.0,-54.93785,10571.68,334.713,299.509,35.204,35.6737907959425,0.937103669712004
44.0,-50.7704833333333,10821.722,337.578,301.668,35.91,36.3974727069202,0.956113843830044
45.0,-46.6572666666667,11068.515,336.62,301.584,35.036,35.5195523476063,0.933052028080384
46.0,-42.4340166666667,11321.91,335.491,299.9,35.591,36.0901665688093,0.948041314857835
47.0,-38.2082666666667,11575.455,335.635,300.048,35.587,36.0939499931953,0.948140700451491
48.0,-34.0491333333333,11825.003,337.673,302.047,35.626,36.1412412312623,0.949382979215509
49.0,-29.8728166666666,12075.582,337.451,301.343,36.108,36.6379401185119,0.962430607168645
50.0,-25.7660333333333,12321.989,334.746,299.484,35.262,35.786962476921,0.940076541256805
51.0,-21.6446166666667,12569.274,338.435,301.232,37.203,37.7645947071871,0.992026344711218
52.0,-17.29905,12830.008,336.26,299.762,36.498,37.0564326160417,0.973423855893608
53.0,-12.6700333333333,13107.749,337.747,301.643,36.104,36.6636975364313,0.963107220736085
54.0,-8.39734999999998,13364.11,338.492,301.884,36.608,37.182799677454,0.976743352766188
55.0,-4.247,13613.131,339.447,301.999,37.448,38.0433380854284,0.999348567464388
56.0,0.0,13867.951,339.718,301.357,38.361,38.9782729622596,1.02390807976942
57.0,4.17065000000002,14118.19,337.889,298.776,39.113,39.7498305747454,1.04417588573909
58.0,8.26091666666668,14363.606,337.804,298.724,39.08,39.7236370192605,1.04348781541015
59.0,12.4243833333334,14613.414,340.582,301.306,39.276,39.930139623448,1.04891236783005
60.0,16.6781,14868.637,337.962,299.129,38.833,39.4868506124006,1.03726774723529
61.0,20.8145666666667,15116.825,337.041,298.844,38.197,38.8470147652722,1.02046009918389
62.0,25.0104166666667,15368.576,334.391,298.616,35.775,36.3901430256034,0.955921302720547
63.0,29.1870833333333,15619.176,332.198,298.865,33.333,33.9119797952435,0.890823206737438
64.0,33.3145166666667,15866.822,327.741,298.205,29.536,30.0541160186362,0.789482187976996
65.0,37.4641333333334,16115.799,323.953,301.077,22.876,23.2811717121069,0.611565829137847
66.0,41.58405,16362.994,317.351,301.349,16.002,16.2880999194523,0.42786701011014
67.0,45.7238666666667,16611.383,312.552,301.957,10.595,10.7861757778215,0.283338683050888
68.0,49.99435,16867.612,306.036,299.162,6.87400000000002,6.99915175910838,0.183858531767745
69.0,54.14405,17116.594,303.761,299.141,4.62,4.70485451983898,0.123590354084368
70.0,58.32615,17367.52,303.337,299.375,3.96199999999999,4.03539490739128,0.106004528593121
71.0,62.5121166666667,17618.678,302.501,298.812,3.68899999999996,3.7579118873384,0.0987154137956013
72.0,66.6226333333334,17865.309,303.859,300.287,3.572,3.63927429358961,0.095598959895209
73.0,70.9057166666667,18122.294,303.642,300.738,2.904,2.95913243442609,0.077732525800984
74.0,75.0924333333333,18373.497,301.454,298.016,3.43799999999999,3.50378279546271,0.0920397760440794
75.0,79.5113166666667,18638.63,303.237,299.489,3.74800000000005,3.82026487317267,0.100353344908026
76.0,83.76165,18893.65,303.536,299.761,3.77499999999998,3.84833196667882,0.101090630622157
77.0,88.0227666666667,19149.317,302.897,300.462,2.435,2.48264898585586,0.0652159308933584
78.0,92.2952,19405.663,300.336,297.397,2.93900000000002,2.99692475784231,0.0787252805424933
79.0,96.4927166666667,19657.514,303.177,300.342,2.83500000000004,2.89126796573335,0.0759498152665528
80.0,100.628633333333,19905.669,303.17,299.559,3.61099999999999,3.68316300032339,0.0967518586262241
81.0,104.839766666667,20158.337,301.733,298.343,3.38999999999999,3.45820291874261,0.0908424524968357
82.0,109.4654,20435.875,300.877,298.032,2.84500000000003,2.90261567548898,0.0762479047103031
83.0,113.62605,20685.514,301.473,298.214,3.25900000000001,3.32542605978837,0.0873545786543675
84.0,117.772133333333,20934.279,298.511,296.113,2.39800000000002,2.44718597420793,0.0642843641152605
85.0,122.121133333333,21195.219,300.697,297.136,3.56099999999998,3.63449297168062,0.0954733608431594
86.0,126.2786,21444.667,299.913,297.192,2.721,2.77749751821005,0.0729612149103779
87.0,130.4531,21695.137,300.187,297.039,3.14800000000002,3.21375204173262,0.0844210487491736
88.0,134.672166666667,21948.281,298.577,295.44,3.137,3.20290385389493,0.084136081090688
89.0,139.046516666667,22210.742,300.886,297.759,3.12700000000001,3.1930686405535,0.083877722942899
90.0,143.151866666667,22457.063,301.113,297.292,3.82100000000003,3.90218325119596,0.102505233197711
91.0,147.292866666667,22705.523,301.563,298.329,3.23399999999998,3.30308810748238,0.0867677899612473
92.0,151.47885,22956.682,302.359,299.4,2.959,3.02255288913617,0.0793984979199431
93.0,155.638083333333,23206.236,302.399,298.083,4.31599999999997,4.40918653510923,0.115823544128805
94.0,159.780883333333,23454.804,300.578,296.29,4.28799999999995,4.38106006914658,0.115084698778156
95.0,163.905116666667,23702.258,299.33,295.991,3.339,3.41183136410679,0.0896243326096602
96.0,168.165983333333,23957.91,301.765,298.025,3.74000000000001,3.8219831650942,0.1003984821819
97.0,172.28505,24205.054,299.528,295.555,3.97300000000001,4.06051476769621,0.106664394358692
98.0,176.464816666667,24455.84,302.044,297.303,4.74099999999999,4.84593058014639,0.127296237055393
99.0,180.62405,24705.394,301.025,296.975,4.04999999999995,4.14005691826677,0.108753862271503
100.0,184.80455,24956.224,300.849,296.957,3.892,3.97894134623044,0.104521567625089
101.0,188.9513,25205.029,300.279,296.406,3.87299999999999,3.95990703457788,0.104021561236587
102.0,193.094633333333,25453.629,301.27,296.973,4.29699999999997,4.3938478542573,0.115420617111682
103.0,197.2739,25704.385,299.895,294.497,5.39799999999997,5.52019091125513,0.145008171125913
104.0,201.282316666667,25944.89,299.867,294.737,5.13,5.2466191161372,0.137821799074758
105.0,205.344383333333,26188.614,302.825,297.749,5.07599999999997,5.19187403583233,0.136383717656783
106.0,209.363733333333,26429.775,301.256,295.909,5.34699999999998,5.46956131233966,0.143678198003316
107.0,213.439133333333,26674.299,304.471,298.499,5.97199999999998,6.10943869678726,0.160486937185578
108.0,217.503766666667,26918.177,304.17,298.023,6.14699999999999,6.28902555597801,0.165204448305782
109.0,221.5856,27163.087,299.141,295.825,3.31600000000003,3.3929131534951,0.0891273760431431
110.0,225.623066666667,27405.335,299.375,294.689,4.68599999999998,4.79510399134545,0.125961089267014
111.0,230.058466666667,27671.459,298.812,297.234,1.57800000000003,1.61487803142072,0.0424207266908617
112.0,234.155466666667,27917.279,300.287,295.127,5.15999999999997,5.28103293953025,0.138725805054243
113.0,238.195733333333,28159.695,300.738,297.037,3.70100000000002,3.78812394248589,0.0995090448372307
114.0,242.273716666667,28404.374,298.016,296.085,1.93100000000004,1.97661810996063,0.0519231638448132
115.0,246.384033333333,28650.993,299.489,296.231,3.25799999999998,3.33523520409891,0.0876122520029253
116.0,250.476483333333,28896.54,299.761,293.819,5.94200000000001,6.08334461935503,0.159801480014531
117.0,254.543216666667,29140.544,300.462,296.902,3.56,3.64496749697789,0.0957485128770632
118.0,258.716283333333,29390.928,297.397,297.597,-0.199999999999989,-0.204789204138377,-0.00537954364909549
119.0,262.703616666667,29630.168,300.342,298.162,2.18000000000001,2.23237152812799,0.0586414705164238
120.0,266.734683333333,29872.032,299.559,297.665,1.89400000000001,1.93964566348659,0.0509519461946555
121.0,270.787583333333,30115.206,298.343,298.591,-0.24799999999999,-0.253995534919448,-0.0066721293855474
122.0,274.885233333333,30361.065,298.032,298.582,-0.550000000000011,-0.563337427136439,-0.0147981349466152
123.0,278.964683333333,30605.832,298.214,295.769,2.44499999999999,2.50447004156177,0.0657891413911148
124.0,283.053933333333,30851.187,296.113,295.089,1.024,1.04898082118192,0.0275553496013352
125.0,287.17835,31098.652,297.136,295.452,1.68400000000003,1.72520159656357,0.0453187819702248
126.0,291.280583333333,31344.786,297.192,296.5,0.692000000000007,0.708979368561162,0.018623957622814
127.0,295.39025,31591.366,297.039,294.165,2.87399999999997,2.94471709387662,0.0773538537219126
128.0,299.385066666667,31831.055,295.44,294.298,1.142,1.17017767078675,0.0307390317945698
129.0,303.441416666667,32074.436,297.759,295.864,1.89500000000004,1.94188448064607,0.051010756983449
130.0,307.42285,32313.322,297.292,296.183,1.10899999999998,1.13651137646735,0.0298546624228712
131.0,311.416266666667,32552.927,298.329,297.161,1.16800000000001,1.197051252584,0.0314449655223466
132.0,315.405233333333,32792.265,299.4,295.619,3.78099999999995,3.87528675691149,0.101798697588963
133.0,319.600733333333,33043.995,298.083,296.04,2.04300000000001,2.09407584050586,0.0550086242871752
134.0,323.6497,33286.933,296.29,298.613,-2.32299999999998,-2.38122118002843,-0.0625515555373609
135.0,327.687433333333,33529.197,295.991,296.212,-0.221000000000004,-0.226552525601975,-0.00595123754407061
136.0,331.711716666667,33770.654,298.025,296.948,1.077,1.10412456100639,0.0290039032817316
137.0,335.857866666667,34019.423,295.555,295.708,-0.15300000000002,-0.156862510963012,-0.00412057231328489
138.0,339.96485,34265.842,297.303,298.736,-1.43299999999999,-1.46926090682471,-0.0385955559201862
139.0,344.014183333333,34508.802,296.975,297.338,-0.363,-0.372206541112262,-0.00977737739065242
140.0,348.059783333333,34751.538,296.957,297.26,-0.302999999999997,-0.310702176166025,-0.0081617384353166
141.0,352.101,34994.011,296.406,297.083,-0.677000000000021,-0.694247426178768,-0.0182369688290663
142.0,356.243966666667,35242.589,296.973,296.073,0.900000000000034,0.922978787473325,0.0242454415275083
143.0,360.388316666667,35491.25,294.497,296.433,-1.93599999999998,-1.98553628010419,-0.0521574324712244
144.0,364.4777,35736.613,294.737,297.088,-2.351,-2.41128216804672,-0.0633412182437507
145.0,368.576733333333,35982.555,297.749,297.03,0.719000000000051,0.737474315917653,0.0193724824961239
146.0,372.56755,36222.004,295.909,294.597,1.31200000000001,1.34578017355321,0.0353518791001547
147.0,376.731683333333,36471.852,298.499,295.017,3.48200000000003,3.5718319800749,0.093827338823313
148.0,380.900516666667,36721.982,298.023,295.285,2.738,2.80877757518853,0.0737829009585751
149.0,384.896183333333,36961.722,295.825,297.787,-1.96199999999999,-2.01281680980614,-0.0528740561864224
150.0,388.888216666667,37201.244,294.689,298.27,-3.58099999999996,-3.67392771484354,-0.0965092597960771
151.0,393.1966,37459.747,297.234,296.432,0.801999999999964,0.822851364597459,0.0216152255251638
152.0,397.557716666667,37721.414,295.127,298.122,-2.995,-3.07301228488991,-0.0807240000288375
153.0,401.743416666667,37972.556,297.037,297.386,-0.349000000000046,-0.358107197941149,-0.00940700614802906
154.0,405.80295,38216.128,296.085,297.335,-1.25,-1.28267758060635,-0.0336942567925873
155.0,411.407033333333,38552.373,296.231,296.706,-0.475000000000023,-0.487439462320405,-0.0128043950113328
156.0,415.449966666667,38794.949,293.819,294.751,-0.93199999999996,-0.956450054950928,-0.0251246878000054
157.0,419.463083333333,39035.736,296.902,296.941,-0.0389999999999873,-0.0400248787595818,-0.00105140104061069
158.0,423.504433333333,39278.217,297.597,294.751,2.846,2.92091606985034,0.0767286320546804
159.0,427.559233333333,39521.505,298.162,294.44,3.72199999999998,3.82013798148731,0.100350011629971
160.0,431.610016666667,39764.552,297.665,295.193,2.47200000000004,2.53728577220536,0.0666511675712393
161.0,435.638183333333,40006.242,298.591,297.391,1.19999999999999,1.23174311325832,0.0323562751763445
162.0,439.816483333333,40256.94,298.582,297.388,1.19400000000002,1.22563441871148,0.0321958077870015
163.0,443.873716666667,40500.374,295.769,297.592,-1.82299999999998,-1.87137474844718,-0.0491585588480743
164.0,447.932333333333,40743.891,295.089,297.328,-2.23899999999998,-2.29850481566738,-0.060378705193775
165.0,452.037883333333,40990.224,295.452,297.977,-2.52499999999998,-2.59220707736958,-0.0680938781850106
166.0,456.0728,41232.319,296.5,296.938,-0.437999999999988,-0.449675437522236,-0.0118123836373836
167.0,460.094016666667,41473.592,294.165,295.02,-0.854999999999961,-0.877824464332445,-0.0230592967143394
168.0,464.137666666667,41716.211,294.298,294.528,-0.230000000000018,-0.236148765285385,-0.00620331816746716
169.0,468.34765,41968.81,295.864,294.391,1.47299999999996,1.51243472101376,0.0397296753622003
170.0,472.401366666667,42212.033,296.183,295.451,0.731999999999971,0.75162427263997,0.0197441832903175
171.0,476.407666666667,42452.411,297.161,295.986,1.17500000000001,1.20654405323763,0.0316943289381732
172.0,480.484083333333,42696.996,295.619,296.485,-0.865999999999985,-0.889280135711701,-0.023360222168265
173.0,484.541366666667,42940.433,296.04,296.464,-0.423999999999978,-0.435413332224569,-0.0114377368472875
174.0,488.517033333333,43178.973,298.613,296.79,1.82299999999998,1.87213640913686,0.0491785666748695
175.0,492.526233333333,43419.525,296.212,297.594,-1.38200000000001,-1.4192980600521,-0.0372830975014079
176.0,496.6856,43669.087,296.948,297.397,-0.449000000000012,-0.461133258652426,-0.0121133655624452
177.0,500.767466666667,43913.999,295.708,297.954,-2.24599999999998,-2.30676946143394,-0.0605958065924184
178.0,504.839916666667,44158.346,298.736,297.912,0.824000000000012,0.846322309155955,0.0222317764379385
179.0,508.8333,44397.949,297.338,297.782,-0.44399999999996,-0.456042677065155,-0.0119796426644866
180.0,512.860416666667,44639.576,297.26,295.127,2.13299999999998,2.19092300970267,0.0575526723300278
181.0,517.011466666667,44888.639,297.083,295.292,1.79100000000005,1.83969318817728,0.0483263258353017
182.0,521.080516666667,45132.782,296.073,294.445,1.62799999999999,1.67231305439007,0.0439294693726373
183.0,525.1046,45374.227,296.433,294.563,1.87,1.92095842340382,0.0504610569208319
184.0,529.140833333333,45616.401,297.088,294.402,2.68600000000004,2.75927739719081,0.0724825962413558
185.0,533.173433333333,45858.357,NA,293.749,-293.749,-301.771740747352,-7.92714761622382
186.0,537.141916666667,46096.466,NA,297.0,-297.0,-305.120409943613,-8.0151127615715
187.0,541.161066666667,46337.615,NA,294.729,-294.729,-302.796007280029,-7.95405375389855
188.0,545.2099,46580.545,NA,295.347,-295.347,-303.439510362804,-7.97095773541789
189.0,549.2984,46825.855,NA,295.486,-295.486,-303.590792434881,-7.97493171692481
190.0,553.321666666667,47067.251,NA,297.641,-297.641,-305.813319001334,-8.03331457321752
191.0,557.40215,47312.08,NA,296.02,-296.02,-304.156068013746,-7.98978076457391
192.0,561.479083333333,47556.696,NA,295.56,-295.56,-303.691555631608,-7.9775786338719
193.0,565.585066666667,47803.055,NA,295.661,-295.661,-303.803356177473,-7.9805154874966
194.0,569.651216666667,48047.024,NA,294.861,-294.861,-302.989214982122,-7.95912906668724
195.0,573.62755,48285.604,NA,296.842,-296.842,-305.032658368772,-8.01280764285628
196.0,577.639333333333,48526.311,NA,294.33,-294.33,-302.459007675532,-7.94520121653093
197.0,581.6348,48766.039,NA,293.802,-293.802,-301.923968802037,-7.93114644745246
198.0,585.62205,49005.274,NA,296.944,-296.944,-305.160347785499,-8.01616187626766
199.0,589.7604,49253.575,NA,295.804,-295.804,-303.996193732281,-7.98558107700187
200.0,593.773633333333,49494.369,NA,293.969,-293.969,-302.11761756633,-7.93623334636634
201.0,597.791983333333,49735.47,NA,297.548,-297.548,-305.803056992517,-8.03304500371267
202.0,601.796816666667,49975.76,NA,297.024,-297.024,-305.27164055012,-8.01908539114544
203.0,605.773583333333,50214.366,NA,295.177,-295.177,-303.380334722237,-7.96940326899602
204.0,609.718983333333,50451.09,NA,295.337,-295.337,-303.551671365556,-7.97390405777198
205.0,613.778916666667,50694.686,NA,295.752,-295.752,-303.985020759215,-7.98528757766165
206.0,617.8945,50941.621,NA,297.883,-297.883,-306.182105377993,-8.04300210737624
207.0,621.926466666667,51183.539,NA,295.36,-295.36,-303.595428814711,-7.97505350853865
208.0,625.89545,51421.678,NA,295.23,-295.23,-303.468326956021,-7.97171470950586
209.0,629.943066666667,51664.535,NA,296.749,-296.749,-305.036182494363,-8.01290021701087
210.0,633.947983333333,51904.83,NA,296.55,-296.55,-304.838002051017,-8.00769427683515
211.0,637.9039,52142.185,NA,293.497,-293.497,-301.705903134048,-7.92541814852063
212.0,641.859816666667,52379.54,NA,295.837,-295.837,-304.117543335608,-7.98876877183493
213.0,645.871866666667,52620.263,NA,293.635,-293.635,-301.859972556242,-7.9294653500573
214.0,649.9229,52863.325,NA,293.468,-293.468,-301.694273965956,-7.92511266553573
