"Frame","Time (aligned)","Time [ s]","Intensity Ch3-T2","background","Intensity (bg-subst)","bleach-Corrected","Normalized"
1.0,-62.93333333333334,0.0,242.36,235.469,6.8910000000000196,6.8910000000000196,0.5392110594137053
2.0,-60.46666666666667,148.0,237.831,230.834,6.996999999999986,7.020237907215668,0.5493237439103182
3.0,-57.96666666666667,298.0,236.867,229.452,7.414999999999992,7.463973460121906,0.5840454269145409
4.0,-55.46666666666667,448.0,234.909,227.962,6.947000000000003,7.015433506805124,0.5489478063344632
5.0,-51.06666666666667,712.0,233.464,225.672,7.792000000000002,7.893762123575825,0.6176757854321707
6.0,-50.333333333333336,756.0,230.748,223.731,7.016999999999996,7.130899638126659,0.5579828687341566
7.0,-47.833333333333336,906.0,229.11,221.202,7.9080000000000155,8.061157875955043,0.6307742676527124
8.0,-45.333333333333336,1056.0,229.529,221.01,8.519000000000005,8.71039290405503,0.6815759956037035
9.0,-42.833333333333336,1206.0,228.903,221.361,7.542000000000002,7.73454440027212,0.6052172224862952
10.0,-40.333333333333336,1356.0,229.779,221.694,8.085000000000008,8.31588186888523,0.6507060618895394
11.0,-37.833333333333336,1506.0,229.152,221.083,8.068999999999988,8.323564535842435,0.6513072197750592
12.0,-35.333333333333336,1656.0,227.897,220.145,7.751999999999981,8.019481500142195,0.6275131498534714
13.0,-32.833333333333336,1806.0,226.907,218.764,8.143,8.447761831666915,0.661025483518759
14.0,-30.333333333333332,1956.0,226.745,217.741,9.00399999999999,9.36697778947046,0.7329528395537657
15.0,-27.833333333333332,2106.0,225.728,217.005,8.723000000000013,9.099530715612314,0.7120254821263756
16.0,-25.333333333333332,2256.0,225.733,216.304,9.429000000000002,9.862578657824416,0.7717329105552878
17.0,-22.833333333333332,2406.0,224.31,215.223,9.086999999999989,9.53015480509302,0.7457212115557694
18.0,-20.333333333333332,2556.0,224.204,214.448,9.756,10.258619460691222,0.8027225464404807
19.0,-17.833333333333332,2706.0,224.847,214.611,10.236000000000018,10.79116863263192,0.844393770238483
20.0,-15.333333333333334,2856.0,224.349,214.254,10.094999999999999,10.669626642004378,0.8348832803923755
21.0,-12.833333333333334,3006.0,223.204,212.857,10.347000000000008,10.963416624974984,0.8578719334126504
22.0,-10.333333333333334,3156.0,222.414,212.262,10.151999999999987,10.783401280398008,0.8437859858491511
23.0,-7.833333333333333,3306.0,221.519,211.66,9.859000000000009,10.497698015562165,0.821430107150836
24.0,-5.333333333333333,3456.0,221.766,210.802,10.963999999999999,11.702317854581395,0.9156899155368938
25.0,-2.8333333333333335,3606.0,221.839,210.784,11.055000000000007,11.82736790832984,0.9254749063889385
26.0,-0.3333333333333333,3756.0,222.105,210.447,11.657999999999987,12.501582299957438,0.9782312344083091
27.0,2.1666666666666665,3906.0,222.41,210.346,12.063999999999993,12.966690538622023,1.0146253000174184
28.0,4.666666666666667,4056.0,222.016,210.258,11.757999999999981,12.666414583919174,0.9911291288301038
29.0,7.166666666666667,4206.0,223.092,210.71,12.382000000000005,13.368393994678808,1.0460580305515246
30.0,9.666666666666666,4356.0,221.364,209.908,11.456000000000017,12.395830518092746,0.9699563061926441
31.0,12.166666666666666,4506.0,220.451,207.765,12.686000000000007,13.756493134683096,1.0764262424858242
32.0,14.666666666666666,4656.0,218.998,206.983,12.014999999999986,13.056706556925025,1.0216689268630672
33.0,17.166666666666668,4806.0,217.567,206.433,11.134000000000015,12.124799851036347,0.9487485376369796
34.0,19.666666666666668,4956.0,214.047,206.572,7.474999999999994,8.157083695014231,0.6382803280967745
35.0,22.166666666666668,5106.0,210.421,206.996,3.424999999999983,3.7451717285431383,0.2930544210468724
36.0,24.666666666666668,5256.0,208.243,206.649,1.593999999999994,1.7465225800414428,0.13666293581107264
37.0,27.166666666666668,5406.0,207.346,206.033,1.3130000000000166,1.4414939886840141,0.11279487748901361
38.0,29.666666666666668,5556.0,206.094,205.78,0.31399999999999295,0.34540425056357205,0.027027396875980277
39.0,32.166666666666664,5706.0,206.286,205.555,0.7309999999999945,0.8056626419318506,0.06304196875433415
40.0,34.666666666666664,5856.0,206.094,205.44,0.6539999999999964,0.7221701193844975,0.056508796277787814
41.0,37.166666666666664,6006.0,205.042,205.257,-0.2150000000000034,-0.23785617902652892,-0.018611911519516796
42.0,39.666666666666664,6156.0,204.999,204.414,0.585000000000008,0.6483873641986562,0.05073539944275379
43.0,42.166666666666664,6306.0,205.378,204.656,0.72199999999998,0.8016914476170236,0.06273122838375869
44.0,44.666666666666664,6456.0,205.936,205.404,0.5320000000000107,0.5917822404524975,0.04630612811153771
45.0,47.166666666666664,6606.0,206.008,205.605,0.40300000000002,0.4490809529196018,0.03513995303820841
46.0,49.666666666666664,6756.0,205.912,205.692,0.21999999999999886,0.24558441277968732,0.0192166349427409
47.0,52.166666666666664,6906.0,205.882,205.526,0.35599999999999454,0.3980852254102665,0.03114960907421461
48.0,54.666666666666664,7056.0,205.137,204.998,0.13900000000001,0.15569633808417332,0.012183019504455274
49.0,57.166666666666664,7206.0,205.189,204.821,0.367999999999995,0.4128941423715807,0.032308386001145356
50.0,59.666666666666664,7356.0,204.256,204.125,0.13100000000000023,0.147224282046212,0.011520093033458119
51.0,62.166666666666664,7506.0,NA,NA,0.0,0.0,0.0
52.0,64.66666666666667,7656.0,NA,NA,0.0,0.0,0.0
53.0,67.16666666666667,7806.0,NA,NA,0.0,0.0,0.0
54.0,69.66666666666667,7956.0,NA,NA,0.0,0.0,0.0
55.0,72.16666666666667,8106.0,NA,NA,0.0,0.0,0.0
56.0,74.66666666666667,8256.0,NA,NA,0.0,0.0,0.0
57.0,77.16666666666667,8406.0,NA,NA,0.0,0.0,0.0
58.0,79.66666666666667,8556.0,NA,NA,0.0,0.0,0.0
59.0,82.16666666666667,8706.0,NA,NA,0.0,0.0,0.0
60.0,84.66666666666667,8856.0,NA,NA,0.0,0.0,0.0
61.0,87.16666666666667,9006.0,NA,NA,0.0,0.0,0.0
62.0,89.66666666666667,9156.0,NA,NA,0.0,0.0,0.0
63.0,92.16666666666667,9306.0,NA,NA,0.0,0.0,0.0
64.0,94.66666666666667,9456.0,NA,NA,0.0,0.0,0.0
65.0,97.16666666666667,9606.0,NA,NA,0.0,0.0,0.0
66.0,99.66666666666667,9756.0,NA,NA,0.0,0.0,0.0
67.0,102.16666666666667,9906.0,NA,NA,0.0,0.0,0.0
68.0,104.66666666666667,10056.0,NA,NA,0.0,0.0,0.0
69.0,107.16666666666667,10206.0,NA,NA,0.0,0.0,0.0
70.0,109.66666666666667,10356.0,NA,NA,0.0,0.0,0.0
71.0,112.16666666666667,10506.0,NA,NA,0.0,0.0,0.0
72.0,114.66666666666667,10656.0,NA,NA,0.0,0.0,0.0
73.0,117.16666666666667,10806.0,NA,NA,0.0,0.0,0.0
74.0,119.66666666666667,10956.0,NA,NA,0.0,0.0,0.0
75.0,122.16666666666667,11106.0,NA,NA,0.0,0.0,0.0
76.0,124.66666666666667,11256.0,NA,NA,0.0,0.0,0.0
77.0,127.16666666666667,11406.0,NA,NA,0.0,0.0,0.0
78.0,129.66666666666666,11556.0,NA,NA,0.0,0.0,0.0
79.0,132.16666666666666,11706.0,NA,NA,0.0,0.0,0.0
80.0,134.66666666666666,11856.0,NA,NA,0.0,0.0,0.0
81.0,137.16666666666666,12006.0,NA,NA,0.0,0.0,0.0
82.0,139.66666666666666,12156.0,NA,NA,0.0,0.0,0.0
83.0,142.16666666666666,12306.0,NA,NA,0.0,0.0,0.0
84.0,144.66666666666666,12456.0,NA,NA,0.0,0.0,0.0
85.0,147.16666666666666,12606.0,NA,NA,0.0,0.0,0.0
86.0,149.66666666666666,12756.0,NA,NA,0.0,0.0,0.0
87.0,152.16666666666666,12906.0,NA,NA,0.0,0.0,0.0
88.0,154.66666666666666,13056.0,NA,NA,0.0,0.0,0.0
89.0,157.16666666666666,13206.0,NA,NA,0.0,0.0,0.0
90.0,159.66666666666666,13356.0,NA,NA,0.0,0.0,0.0
91.0,162.16666666666666,13506.0,NA,NA,0.0,0.0,0.0
92.0,164.66666666666666,13656.0,NA,NA,0.0,0.0,0.0
93.0,167.16666666666666,13806.0,NA,NA,0.0,0.0,0.0
94.0,169.66666666666666,13956.0,NA,NA,0.0,0.0,0.0
95.0,172.16666666666666,14106.0,NA,NA,0.0,0.0,0.0
96.0,174.66666666666666,14256.0,NA,NA,0.0,0.0,0.0
97.0,177.16666666666666,14406.0,NA,NA,0.0,0.0,0.0
98.0,179.66666666666666,14556.0,NA,NA,0.0,0.0,0.0
99.0,182.16666666666666,14706.0,NA,NA,0.0,0.0,0.0
100.0,184.66666666666666,14856.0,NA,NA,0.0,0.0,0.0
101.0,187.16666666666666,15006.0,NA,NA,0.0,0.0,0.0
102.0,189.66666666666666,15156.0,NA,NA,0.0,0.0,0.0
103.0,192.16666666666666,15306.0,NA,NA,0.0,0.0,0.0
104.0,194.66666666666666,15456.0,NA,NA,0.0,0.0,0.0
105.0,197.16666666666666,15606.0,NA,NA,0.0,0.0,0.0
106.0,199.66666666666666,15756.0,NA,NA,0.0,0.0,0.0
107.0,202.16666666666666,15906.0,NA,NA,0.0,0.0,0.0
108.0,204.66666666666666,16056.0,NA,NA,0.0,0.0,0.0
109.0,207.16666666666666,16206.0,NA,NA,0.0,0.0,0.0
110.0,209.66666666666666,16356.0,NA,NA,0.0,0.0,0.0
111.0,212.16666666666666,16506.0,NA,NA,0.0,0.0,0.0
112.0,214.66666666666666,16656.0,NA,NA,0.0,0.0,0.0
113.0,217.16666666666666,16806.0,NA,NA,0.0,0.0,0.0
114.0,219.66666666666666,16956.0,NA,NA,0.0,0.0,0.0
115.0,222.16666666666666,17106.0,NA,NA,0.0,0.0,0.0
116.0,224.66666666666666,17256.0,NA,NA,0.0,0.0,0.0
117.0,227.16666666666666,17406.0,NA,NA,0.0,0.0,0.0
118.0,229.66666666666666,17556.0,NA,NA,0.0,0.0,0.0
119.0,232.16666666666666,17706.0,NA,NA,0.0,0.0,0.0
120.0,234.66666666666666,17856.0,NA,NA,0.0,0.0,0.0
121.0,237.16666666666666,18006.0,NA,NA,0.0,0.0,0.0
122.0,239.66666666666666,18156.0,NA,NA,0.0,0.0,0.0
123.0,242.16666666666666,18306.0,NA,NA,0.0,0.0,0.0
124.0,244.66666666666666,18456.0,NA,NA,0.0,0.0,0.0
125.0,247.16666666666666,18606.0,NA,NA,0.0,0.0,0.0
126.0,249.66666666666666,18756.0,NA,NA,0.0,0.0,0.0
127.0,252.16666666666666,18906.0,NA,NA,0.0,0.0,0.0
128.0,254.66666666666666,19056.0,NA,NA,0.0,0.0,0.0
129.0,257.1666666666667,19206.0,NA,NA,0.0,0.0,0.0
130.0,259.6666666666667,19356.0,NA,NA,0.0,0.0,0.0
131.0,262.1666666666667,19506.0,NA,NA,0.0,0.0,0.0
132.0,264.6666666666667,19656.0,NA,NA,0.0,0.0,0.0
133.0,267.1666666666667,19806.0,NA,NA,0.0,0.0,0.0
134.0,269.6666666666667,19956.0,NA,NA,0.0,0.0,0.0
135.0,272.1666666666667,20106.0,NA,NA,0.0,0.0,0.0
136.0,274.6666666666667,20256.0,NA,NA,0.0,0.0,0.0
137.0,277.1666666666667,20406.0,NA,NA,0.0,0.0,0.0
138.0,279.6666666666667,20556.0,NA,NA,0.0,0.0,0.0
139.0,282.1666666666667,20706.0,NA,NA,0.0,0.0,0.0
140.0,284.6666666666667,20856.0,NA,NA,0.0,0.0,0.0
141.0,287.1666666666667,21006.0,NA,NA,0.0,0.0,0.0
142.0,289.6666666666667,21156.0,NA,NA,0.0,0.0,0.0
143.0,292.1666666666667,21306.0,NA,NA,0.0,0.0,0.0
144.0,294.6666666666667,21456.0,NA,NA,0.0,0.0,0.0
145.0,297.1666666666667,21606.0,NA,NA,0.0,0.0,0.0
146.0,299.6666666666667,21756.0,NA,NA,0.0,0.0,0.0
147.0,302.1666666666667,21906.0,NA,NA,0.0,0.0,0.0
148.0,304.6666666666667,22056.0,NA,NA,0.0,0.0,0.0
149.0,307.1666666666667,22206.0,NA,NA,0.0,0.0,0.0
150.0,309.6666666666667,22356.0,NA,NA,0.0,0.0,0.0
151.0,312.1666666666667,22506.0,NA,NA,0.0,0.0,0.0
152.0,314.6666666666667,22656.0,NA,NA,0.0,0.0,0.0
153.0,317.1666666666667,22806.0,NA,NA,0.0,0.0,0.0
154.0,319.6666666666667,22956.0,NA,NA,0.0,0.0,0.0
155.0,322.1666666666667,23106.0,NA,NA,0.0,0.0,0.0
156.0,324.6666666666667,23256.0,NA,NA,0.0,0.0,0.0
157.0,327.1666666666667,23406.0,NA,NA,0.0,0.0,0.0
158.0,329.6666666666667,23556.0,NA,NA,0.0,0.0,0.0
159.0,332.1666666666667,23706.0,NA,NA,0.0,0.0,0.0
160.0,334.6666666666667,23856.0,NA,NA,0.0,0.0,0.0
161.0,337.1666666666667,24006.0,NA,NA,0.0,0.0,0.0
162.0,339.6666666666667,24156.0,NA,NA,0.0,0.0,0.0
163.0,342.1666666666667,24306.0,NA,NA,0.0,0.0,0.0
164.0,344.6666666666667,24456.0,NA,NA,0.0,0.0,0.0
165.0,347.1666666666667,24606.0,NA,NA,0.0,0.0,0.0
166.0,349.6666666666667,24756.0,NA,NA,0.0,0.0,0.0
167.0,352.1666666666667,24906.0,NA,NA,0.0,0.0,0.0
168.0,354.6666666666667,25056.0,NA,NA,0.0,0.0,0.0
169.0,357.1666666666667,25206.0,NA,NA,0.0,0.0,0.0
170.0,359.6666666666667,25356.0,NA,NA,0.0,0.0,0.0
171.0,362.1666666666667,25506.0,NA,NA,0.0,0.0,0.0
172.0,364.6666666666667,25656.0,NA,NA,0.0,0.0,0.0
173.0,367.1666666666667,25806.0,NA,NA,0.0,0.0,0.0
174.0,369.6666666666667,25956.0,NA,NA,0.0,0.0,0.0
175.0,372.1666666666667,26106.0,NA,NA,0.0,0.0,0.0
176.0,374.6666666666667,26256.0,NA,NA,0.0,0.0,0.0
177.0,377.1666666666667,26406.0,NA,NA,0.0,0.0,0.0
178.0,379.6666666666667,26556.0,NA,NA,0.0,0.0,0.0
179.0,382.1666666666667,26706.0,NA,NA,0.0,0.0,0.0
180.0,384.6666666666667,26856.0,NA,NA,0.0,0.0,0.0
181.0,387.1666666666667,27006.0,NA,NA,0.0,0.0,0.0
182.0,389.6666666666667,27156.0,NA,NA,0.0,0.0,0.0
183.0,392.1666666666667,27306.0,NA,NA,0.0,0.0,0.0
184.0,394.6666666666667,27456.0,NA,NA,0.0,0.0,0.0
185.0,397.1666666666667,27606.0,NA,NA,0.0,0.0,0.0
186.0,399.6666666666667,27756.0,NA,NA,0.0,0.0,0.0
187.0,402.1666666666667,27906.0,NA,NA,0.0,0.0,0.0
188.0,404.6666666666667,28056.0,NA,NA,0.0,0.0,0.0
189.0,407.1666666666667,28206.0,NA,NA,0.0,0.0,0.0
190.0,409.6666666666667,28356.0,NA,NA,0.0,0.0,0.0
191.0,412.1666666666667,28506.0,NA,NA,0.0,0.0,0.0
192.0,414.6666666666667,28656.0,NA,NA,0.0,0.0,0.0
193.0,417.1666666666667,28806.0,NA,NA,0.0,0.0,0.0
194.0,419.6666666666667,28956.0,NA,NA,0.0,0.0,0.0
195.0,422.1666666666667,29106.0,NA,NA,0.0,0.0,0.0
196.0,424.6666666666667,29256.0,NA,NA,0.0,0.0,0.0
197.0,427.1666666666667,29406.0,NA,NA,0.0,0.0,0.0
198.0,429.6666666666667,29556.0,NA,NA,0.0,0.0,0.0
199.0,432.1666666666667,29706.0,NA,NA,0.0,0.0,0.0
200.0,434.6666666666667,29856.0,NA,NA,0.0,0.0,0.0
201.0,437.1666666666667,30006.0,NA,NA,0.0,0.0,0.0
202.0,439.6666666666667,30156.0,NA,NA,0.0,0.0,0.0
203.0,442.1666666666667,30306.0,NA,NA,0.0,0.0,0.0
204.0,444.6666666666667,30456.0,NA,NA,0.0,0.0,0.0
205.0,447.1666666666667,30606.0,NA,NA,0.0,0.0,0.0
206.0,449.6666666666667,30756.0,NA,NA,0.0,0.0,0.0
207.0,452.1666666666667,30906.0,NA,NA,0.0,0.0,0.0
208.0,454.6666666666667,31056.0,NA,NA,0.0,0.0,0.0
209.0,457.1666666666667,31206.0,NA,NA,0.0,0.0,0.0
210.0,459.6666666666667,31356.0,NA,NA,0.0,0.0,0.0
211.0,462.1666666666667,31506.0,NA,NA,0.0,0.0,0.0
212.0,464.6666666666667,31656.0,NA,NA,0.0,0.0,0.0
213.0,467.1666666666667,31806.0,NA,NA,0.0,0.0,0.0
214.0,469.6666666666667,31956.0,NA,NA,0.0,0.0,0.0
215.0,472.1666666666667,32106.0,NA,NA,0.0,0.0,0.0
216.0,474.6666666666667,32256.0,NA,NA,0.0,0.0,0.0
217.0,477.1666666666667,32406.0,NA,NA,0.0,0.0,0.0
218.0,479.6666666666667,32556.0,NA,NA,0.0,0.0,0.0
219.0,482.1666666666667,32706.0,NA,NA,0.0,0.0,0.0
220.0,484.6666666666667,32856.0,NA,NA,0.0,0.0,0.0
221.0,487.1666666666667,33006.0,NA,NA,0.0,0.0,0.0
222.0,489.6666666666667,33156.0,NA,NA,0.0,0.0,0.0
223.0,492.1666666666667,33306.0,NA,NA,0.0,0.0,0.0
224.0,494.6666666666667,33456.0,NA,NA,0.0,0.0,0.0
225.0,497.1666666666667,33606.0,NA,NA,0.0,0.0,0.0
226.0,499.6666666666667,33756.0,NA,NA,0.0,0.0,0.0
227.0,502.1666666666667,33906.0,NA,NA,0.0,0.0,0.0
228.0,504.6666666666667,34056.0,NA,NA,0.0,0.0,0.0
229.0,507.1666666666667,34206.0,NA,NA,0.0,0.0,0.0
230.0,509.6666666666667,34356.0,NA,NA,0.0,0.0,0.0
231.0,512.1666666666666,34506.0,NA,NA,0.0,0.0,0.0
232.0,514.6666666666666,34656.0,NA,NA,0.0,0.0,0.0
233.0,517.1666666666666,34806.0,NA,NA,0.0,0.0,0.0
234.0,519.6666666666666,34956.0,NA,NA,0.0,0.0,0.0
235.0,522.1666666666666,35106.0,NA,NA,0.0,0.0,0.0
236.0,524.6666666666666,35256.0,NA,NA,0.0,0.0,0.0
237.0,527.1666666666666,35406.0,NA,NA,0.0,0.0,0.0
238.0,529.6666666666666,35556.0,NA,NA,0.0,0.0,0.0
239.0,532.1666666666666,35706.0,NA,NA,0.0,0.0,0.0
240.0,534.6666666666666,35856.0,NA,NA,0.0,0.0,0.0
241.0,537.1666666666666,36006.0,NA,NA,0.0,0.0,0.0
242.0,539.6666666666666,36156.0,NA,NA,0.0,0.0,0.0
243.0,542.1666666666666,36306.0,NA,NA,0.0,0.0,0.0
244.0,544.6666666666666,36456.0,NA,NA,0.0,0.0,0.0
245.0,547.1666666666666,36606.0,NA,NA,0.0,0.0,0.0
246.0,549.6666666666666,36756.0,NA,NA,0.0,0.0,0.0
247.0,552.1666666666666,36906.0,NA,NA,0.0,0.0,0.0
248.0,554.6666666666666,37056.0,NA,NA,0.0,0.0,0.0
249.0,557.1666666666666,37206.0,NA,NA,0.0,0.0,0.0
250.0,559.6666666666666,37356.0,NA,NA,0.0,0.0,0.0
251.0,562.1666666666666,37506.0,NA,NA,0.0,0.0,0.0
252.0,564.6666666666666,37656.0,NA,NA,0.0,0.0,0.0
253.0,567.1666666666666,37806.0,NA,NA,0.0,0.0,0.0
254.0,569.6666666666666,37956.0,NA,NA,0.0,0.0,0.0
255.0,572.1666666666666,38106.0,NA,NA,0.0,0.0,0.0
256.0,574.6666666666666,38256.0,NA,NA,0.0,0.0,0.0
257.0,577.1666666666666,38406.0,NA,NA,0.0,0.0,0.0
258.0,579.6666666666666,38556.0,NA,NA,0.0,0.0,0.0
259.0,582.1666666666666,38706.0,NA,NA,0.0,0.0,0.0
260.0,584.6666666666666,38856.0,NA,NA,0.0,0.0,0.0
261.0,587.1666666666666,39006.0,NA,NA,0.0,0.0,0.0
262.0,589.6666666666666,39156.0,NA,NA,0.0,0.0,0.0
263.0,592.1666666666666,39306.0,NA,NA,0.0,0.0,0.0
264.0,594.6666666666666,39456.0,NA,NA,0.0,0.0,0.0
265.0,597.1666666666666,39606.0,NA,NA,0.0,0.0,0.0
266.0,599.6666666666666,39756.0,NA,NA,0.0,0.0,0.0
267.0,602.1666666666666,39906.0,NA,NA,0.0,0.0,0.0
268.0,604.6666666666666,40056.0,NA,NA,0.0,0.0,0.0
269.0,607.1666666666666,40206.0,NA,NA,0.0,0.0,0.0
270.0,609.6666666666666,40356.0,NA,NA,0.0,0.0,0.0
271.0,612.1666666666666,40506.0,NA,NA,0.0,0.0,0.0
272.0,614.6666666666666,40656.0,NA,NA,0.0,0.0,0.0
273.0,617.1666666666666,40806.0,NA,NA,0.0,0.0,0.0
274.0,619.6666666666666,40956.0,NA,NA,0.0,0.0,0.0
275.0,622.1666666666666,41106.0,NA,NA,0.0,0.0,0.0
276.0,624.6666666666666,41256.0,NA,NA,0.0,0.0,0.0
277.0,627.1666666666666,41406.0,NA,NA,0.0,0.0,0.0
278.0,629.6666666666666,41556.0,NA,NA,0.0,0.0,0.0
279.0,632.1666666666666,41706.0,NA,NA,0.0,0.0,0.0
280.0,634.6666666666666,41856.0,NA,NA,0.0,0.0,0.0
281.0,637.1666666666666,42006.0,NA,NA,0.0,0.0,0.0
282.0,639.6666666666666,42156.0,NA,NA,0.0,0.0,0.0
283.0,642.1666666666666,42306.0,NA,NA,0.0,0.0,0.0
284.0,644.6666666666666,42456.0,NA,NA,0.0,0.0,0.0
285.0,647.1666666666666,42606.0,NA,NA,0.0,0.0,0.0
286.0,649.6666666666666,42756.0,NA,NA,0.0,0.0,0.0
287.0,652.1666666666666,42906.0,NA,NA,0.0,0.0,0.0
288.0,654.6666666666666,43056.0,NA,NA,0.0,0.0,0.0
289.0,657.1666666666666,43206.0,NA,NA,0.0,0.0,0.0
290.0,659.6666666666666,43356.0,NA,NA,0.0,0.0,0.0
291.0,662.1666666666666,43506.0,NA,NA,0.0,0.0,0.0
292.0,664.6666666666666,43656.0,NA,NA,0.0,0.0,0.0
293.0,667.1666666666666,43806.0,NA,NA,0.0,0.0,0.0
294.0,669.6666666666666,43956.0,NA,NA,0.0,0.0,0.0
295.0,672.1666666666666,44106.0,NA,NA,0.0,0.0,0.0
296.0,674.6666666666666,44256.0,NA,NA,0.0,0.0,0.0
297.0,677.1666666666666,44406.0,NA,NA,0.0,0.0,0.0
298.0,679.6666666666666,44556.0,NA,NA,0.0,0.0,0.0
299.0,682.1666666666666,44706.0,NA,NA,0.0,0.0,0.0
300.0,684.6666666666666,44856.0,NA,NA,0.0,0.0,0.0
301.0,687.1666666666666,45006.0,NA,NA,0.0,0.0,0.0
302.0,689.6666666666666,45156.0,NA,NA,0.0,0.0,0.0
303.0,692.1666666666666,45306.0,NA,NA,0.0,0.0,0.0
304.0,694.6666666666666,45456.0,NA,NA,0.0,0.0,0.0
305.0,697.1666666666666,45606.0,NA,NA,0.0,0.0,0.0
306.0,699.6666666666666,45756.0,NA,NA,0.0,0.0,0.0
307.0,702.1666666666666,45906.0,NA,NA,0.0,0.0,0.0
308.0,704.6666666666666,46056.0,NA,NA,0.0,0.0,0.0
309.0,707.1666666666666,46206.0,NA,NA,0.0,0.0,0.0
310.0,709.6666666666666,46356.0,NA,NA,0.0,0.0,0.0
311.0,712.1666666666666,46506.0,NA,NA,0.0,0.0,0.0
312.0,714.6666666666666,46656.0,NA,NA,0.0,0.0,0.0
313.0,717.1666666666666,46806.0,NA,NA,0.0,0.0,0.0
314.0,719.6666666666666,46956.0,NA,NA,0.0,0.0,0.0
315.0,722.1666666666666,47106.0,NA,NA,0.0,0.0,0.0
316.0,724.6666666666666,47256.0,NA,NA,0.0,0.0,0.0
317.0,727.1666666666666,47406.0,NA,NA,0.0,0.0,0.0
318.0,729.6666666666666,47556.0,NA,NA,0.0,0.0,0.0
319.0,732.1666666666666,47706.0,NA,NA,0.0,0.0,0.0
320.0,734.6666666666666,47856.0,NA,NA,0.0,0.0,0.0
321.0,737.1666666666666,48006.0,NA,NA,0.0,0.0,0.0
322.0,739.6666666666666,48156.0,NA,NA,0.0,0.0,0.0
323.0,742.1666666666666,48306.0,NA,NA,0.0,0.0,0.0
324.0,744.6666666666666,48456.0,NA,NA,0.0,0.0,0.0
325.0,747.1666666666666,48606.0,NA,NA,0.0,0.0,0.0
326.0,749.6666666666666,48756.0,NA,NA,0.0,0.0,0.0
327.0,752.1666666666666,48906.0,NA,NA,0.0,0.0,0.0
328.0,754.6666666666666,49056.0,NA,NA,0.0,0.0,0.0
329.0,757.1666666666666,49206.0,NA,NA,0.0,0.0,0.0
330.0,759.6666666666666,49356.0,NA,NA,0.0,0.0,0.0
331.0,762.1666666666666,49506.0,NA,NA,0.0,0.0,0.0
332.0,764.6666666666666,49656.0,NA,NA,0.0,0.0,0.0
333.0,767.1666666666666,49806.0,NA,NA,0.0,0.0,0.0
334.0,769.6666666666666,49956.0,NA,NA,0.0,0.0,0.0
335.0,772.1666666666666,50106.0,NA,NA,0.0,0.0,0.0
336.0,774.6666666666666,50256.0,NA,NA,0.0,0.0,0.0
337.0,777.1666666666666,50406.0,NA,NA,0.0,0.0,0.0
338.0,779.6666666666666,50556.0,NA,NA,0.0,0.0,0.0
339.0,782.1666666666666,50706.0,NA,NA,0.0,0.0,0.0
340.0,784.6666666666666,50856.0,NA,NA,0.0,0.0,0.0
341.0,787.1666666666666,51006.0,NA,NA,0.0,0.0,0.0
342.0,789.6666666666666,51156.0,NA,NA,0.0,0.0,0.0
343.0,792.1666666666666,51306.0,NA,NA,0.0,0.0,0.0
344.0,794.6666666666666,51456.0,NA,NA,0.0,0.0,0.0
