"Frame","Time (aligned)","Time [ s]","Intensity Ch3-T2","background","Intensity (bg-subst)","bleach-Corrected","Normalized"
1.0,-12.200000000000001,0.0,253.41,244.047,9.363,9.363,0.9274208488334413
2.0,-9.733333333333334,148.0,249.936,239.784,10.152000000000015,10.185716054602501,1.0089122534802801
3.0,-7.233333333333333,298.0,247.806,237.434,10.372000000000014,10.440503402344516,1.034149367473116
4.0,-4.733333333333333,448.0,245.473,235.479,9.994,10.092448894056481,0.9996739848482312
5.0,-0.3333333333333333,712.0,244.905,234.642,10.263000000000005,10.39703294074162,1.0298435453649306
6.0,0.39999999999999997,756.0,263.614,253.84,9.773999999999972,9.9326511419481,0.9838457495708595
7.0,2.9,906.0,258.079,248.434,9.64500000000001,9.831799154474751,0.9738561911142674
8.0,5.4,1056.0,255.401,245.997,9.403999999999996,9.615275838682171,0.9524091936428816
9.0,7.8999999999999995,1206.0,253.956,244.433,9.522999999999996,9.766118579129058,0.967350420000418
10.0,10.399999999999999,1356.0,252.462,242.517,9.944999999999993,10.228997549296656,1.0131993580993162
11.0,12.899999999999999,1506.0,250.94,241.147,9.793000000000006,10.101954083468227,1.0006154897967054
12.0,15.399999999999999,1656.0,249.908,239.347,10.560999999999979,10.925405588622517,1.0821797420538204
13.0,17.900000000000002,1806.0,248.126,238.048,10.078000000000003,10.455181596406629,1.0356032672057258
14.0,20.400000000000002,1956.0,246.41,236.382,10.027999999999992,10.432258248868257,1.0333326711967392
15.0,22.900000000000002,2106.0,244.846,235.141,9.705000000000013,10.12391901811504,1.0027911534018232
16.0,25.400000000000002,2256.0,243.761,234.066,9.694999999999993,10.140810275491317,1.0044642607663188
17.0,27.900000000000002,2406.0,242.024,232.594,9.430000000000007,9.88988222868134,0.9796094170016465
18.0,30.400000000000002,2556.0,241.223,231.37,9.853000000000009,10.360616804652594,1.0262364660267997
19.0,32.9,2706.0,240.561,230.579,9.982,10.523392466874913,1.0423596682939844
20.0,35.4,2856.0,240.177,229.752,10.424999999999983,11.018410871014904,1.091392071215664
21.0,37.9,3006.0,239.625,229.401,10.22399999999999,10.833088970111534,1.0730356262041045
22.0,40.4,3156.0,239.03,228.907,10.12299999999999,10.752597632138404,1.0650628242189737
23.0,42.9,3306.0,238.76,228.912,9.847999999999985,10.485985399863672,1.0386544355865257
24.0,45.4,3456.0,238.175,228.613,9.562000000000012,10.205906906740921,1.010912191238358
25.0,47.9,3606.0,237.832,228.154,9.677999999999997,10.354162516220361,1.0255971579357566
26.0,50.4,3756.0,236.418,226.927,9.491000000000014,10.177776428966919,1.0081258202487975
27.0,52.9,3906.0,236.225,226.393,9.831999999999994,10.56768081695389,1.0467465036270696
28.0,55.4,4056.0,236.181,226.497,9.683999999999997,10.432178842547495,1.0333248058675282
29.0,57.9,4206.0,237.283,227.688,9.594999999999999,10.359371699155476,1.0261131362396563
30.0,60.4,4356.0,239.129,229.404,9.724999999999994,10.522822258070155,1.0423031881558105
31.0,62.9,4506.0,239.872,230.681,9.191000000000003,9.966571685391163,0.9872056362730764
32.0,65.4,4656.0,239.529,230.474,9.055000000000007,9.840073064748758,0.974675735799677
33.0,67.9,4806.0,237.433,229.345,8.087999999999994,8.807740362419775,0.8724214507337297
34.0,70.4,4956.0,233.855,226.921,6.9339999999999975,7.566718172739626,0.7494961220384077
35.0,72.9,5106.0,229.243,224.949,4.293999999999983,4.695406540836278,0.4650878906034897
36.0,75.4,5256.0,225.732,223.148,2.584000000000003,2.831251158611738,0.2804401743864533
37.0,77.9,5406.0,225.666,224.596,1.0699999999999932,1.174713303801878,0.11635732236973984
38.0,80.4,5556.0,224.145,223.869,0.27600000000001046,0.3036037361641772,0.030072459115922823
39.0,82.9,5706.0,222.102,221.562,0.539999999999992,0.5951543456131274,0.05895103582136473
40.0,85.4,5856.0,221.53,220.873,0.6570000000000107,0.7254828263541669,0.07186029035901588
41.0,87.9,6006.0,221.06,221.074,-0.014000000000010004,-0.015488309331970844,-0.0015341430084002256
42.0,90.4,6156.0,221.203,220.918,0.2849999999999966,0.31588102358395265,0.031288545020036924
43.0,92.9,6306.0,222.802,222.128,0.6740000000000066,0.7483934012380805,0.07412962121516255
44.0,95.4,6456.0,222.753,222.267,0.48599999999999,0.5406130993607182,0.053548633931388964
45.0,97.9,6606.0,221.535,220.777,0.7580000000000098,0.844673355615498,0.0836663121277279
46.0,100.4,6756.0,220.766,220.221,0.5449999999999875,0.6083795680223963,0.060261016275579754
47.0,102.9,6906.0,219.867,219.425,0.44199999999997885,0.4942518809868878,0.04895647751814425
48.0,105.4,7056.0,219.064,218.775,0.28899999999998727,0.3237139691102221,0.03206441140782277
49.0,107.9,7206.0,219.195,218.378,0.8170000000000073,0.9166698758630136,0.09079768817397431
50.0,110.4,7356.0,218.771,218.276,0.4949999999999761,0.5563054932280251,0.0551029918552004
51.0,112.9,7506.0,218.816,217.854,0.9619999999999891,1.0829055509018142,0.10726361051199466
52.0,115.4,7656.0,218.631,217.85,0.7810000000000059,0.8805705974117959,0.08722199411613996
53.0,117.9,7806.0,218.192,217.601,0.5910000000000082,0.6674038554062619,0.06610747090628931
54.0,120.4,7956.0,218.327,217.398,0.929000000000002,1.0507408991263674,0.1040776478235383
55.0,122.9,8106.0,218.031,217.433,0.5980000000000132,0.6774083874647513,0.06709843658116549
56.0,125.4,8256.0,217.825,217.58,0.24499999999997613,0.27795587679306094,0.027531995641745598
57.0,127.89999999999999,8406.0,218.193,217.774,0.41900000000001114,0.4760748884006065,0.04715601592532056
58.0,130.39999999999998,8556.0,218.632,218.079,0.5529999999999973,0.6292585071487173,0.06232911020351678
59.0,132.89999999999998,8706.0,217.878,217.802,0.0759999999999934,0.08660673355893257,0.008578542171517349
60.0,135.39999999999998,8856.0,218.162,217.699,0.46299999999999386,0.5283779665572369,0.05233672351269896
61.0,137.89999999999998,9006.0,NA,217.588,-217.588,-248.6657520723263,-24.630759677744628
62.0,140.39999999999998,9156.0,NA,217.274,-217.274,-248.65543267006672,-24.629737523648394
63.0,142.89999999999998,9306.0,NA,216.744,-216.744,-248.39245886911473,-24.60368952773898
64.0,145.39999999999998,9456.0,NA,216.478,-216.478,-248.4267357464643,-24.607084709912098
65.0,147.89999999999998,9606.0,NA,215.979,-215.979,-248.1884613471555,-24.58348323114864
66.0,150.39999999999998,9756.0,NA,216.047,-216.047,-248.59717127187443,-24.623966634471238
67.0,152.89999999999998,9906.0,NA,215.733,-215.733,-248.56211077418288,-24.62049383338936
68.0,155.39999999999998,10056.0,NA,215.788,-215.788,-248.9480283531539,-24.658719616649964
69.0,157.89999999999998,10206.0,NA,215.337,-215.337,-248.74588092243843,-24.63869657469935
70.0,160.39999999999998,10356.0,NA,215.08,-215.08,-248.7631318170559,-24.640405304735584
71.0,162.89999999999998,10506.0,NA,214.692,-214.692,-248.62433462364285,-24.62665721000838
72.0,165.39999999999998,10656.0,NA,214.299,-214.299,-248.47509197350448,-24.61187447527875
73.0,167.89999999999998,10806.0,NA,214.282,-214.282,-248.75775638741788,-24.639872859417018
74.0,170.39999999999998,10956.0,NA,214.042,-214.042,-248.77776693736703,-24.641854937940938
75.0,172.89999999999998,11106.0,NA,214.041,-214.041,-249.07186885006703,-24.670986225511136
76.0,175.39999999999998,11256.0,NA,213.819,-213.819,-249.10519197222942,-24.674286936633813
77.0,177.89999999999998,11406.0,NA,213.774,-213.774,-249.34111322759057,-24.697655332543764
78.0,180.39999999999998,11556.0,NA,213.373,-213.373,-249.15801327781304,-24.67951897551674
79.0,182.89999999999998,11706.0,NA,213.149,-213.149,-249.1776300518325,-24.681462049874586
80.0,185.39999999999998,11856.0,NA,213.482,-213.482,-249.84545211553709,-24.747610945014028
81.0,187.89999999999998,12006.0,NA,213.197,-213.197,-249.78703584448277,-24.741824715420215
82.0,190.39999999999998,12156.0,NA,213.273,-213.273,-250.14832130002068,-24.777610645554375
83.0,192.89999999999998,12306.0,NA,213.219,-213.219,-250.35422200543283,-24.79800545565677
84.0,195.39999999999998,12456.0,NA,213.153,-213.153,-250.5429949139695,-24.81670372876067
85.0,197.89999999999998,12606.0,NA,212.797,-212.797,-250.3875368330031,-24.801305345186194
86.0,200.39999999999998,12756.0,NA,212.529,-212.529,-250.3320694879367,-24.795811211655913
87.0,202.89999999999998,12906.0,NA,212.183,-212.183,-250.1812448544208,-24.78087177882025
88.0,205.39999999999998,13056.0,NA,211.611,-211.611,-249.76015736411512,-24.739162356872963
89.0,207.89999999999998,13206.0,NA,211.052,-211.052,-249.35043177388067,-24.6985783501781
90.0,210.39999999999998,13356.0,NA,210.551,-210.551,-249.00539791125144,-24.6644021675704
91.0,212.89999999999998,13506.0,NA,210.223,-210.223,-248.8614582973881,-24.650144707475356
92.0,215.39999999999998,13656.0,NA,209.812,-209.812,-248.61592364188732,-24.625824088162897
93.0,217.89999999999998,13806.0,NA,209.448,-209.448,-248.4227553622899,-24.60669044618576
94.0,220.39999999999998,13956.0,NA,209.609,-209.609,-248.84965370439394,-24.64897544274666
95.0,222.89999999999998,14106.0,NA,209.949,-209.949,-249.4872672098616,-24.712132129542397
96.0,225.39999999999998,14256.0,NA,210.34,-210.34,-250.1839767371071,-24.781142376380842
97.0,227.89999999999998,14406.0,NA,210.49,-210.49,-250.59234656340197,-24.8215920923843
98.0,230.39999999999998,14556.0,NA,210.47,-210.47,-250.796224924603,-24.84178658590174
99.0,232.89999999999998,14706.0,NA,210.232,-210.232,-250.73785120456483,-24.836004571057423
100.0,235.39999999999998,14856.0,NA,210.09,-210.09,-250.7914025294857,-24.84130891957972
101.0,237.89999999999998,15006.0,NA,209.857,-209.857,-250.7338018008383,-24.835603470828723
102.0,240.39999999999998,15156.0,NA,209.648,-209.648,-250.70232599058727,-24.83248573904823
103.0,242.89999999999998,15306.0,NA,209.439,-209.439,-250.66836808675137,-24.829122151736463
104.0,245.39999999999998,15456.0,NA,209.348,-209.348,-250.7733195637876,-24.839517771507825
105.0,247.89999999999998,15606.0,NA,208.834,-208.834,-250.36898048063804,-24.799467307371213
106.0,250.39999999999998,15756.0,NA,208.479,-208.479,-250.1524530635017,-24.77801990365485
107.0,252.89999999999998,15906.0,NA,208.013,-208.013,-249.80002019092578,-24.743110836706098
108.0,255.39999999999998,16056.0,NA,207.805,-207.805,-249.75488757145428,-24.738640375074105
109.0,257.90000000000003,16206.0,NA,207.282,-207.282,-249.3286243649188,-24.696418289756195
110.0,260.40000000000003,16356.0,NA,206.917,-206.917,-249.08975860744007,-24.672758235974484
111.0,262.90000000000003,16506.0,NA,206.746,-206.746,-249.08216188101187,-24.67200576748443
112.0,265.40000000000003,16656.0,NA,206.729,-206.729,-249.25819889521404,-24.689442528900372
113.0,267.90000000000003,16806.0,NA,206.989,-206.989,-249.76676003844386,-24.739816362835853
114.0,270.40000000000003,16956.0,NA,206.509,-206.509,-249.380522019892,-24.701558839497487
115.0,272.90000000000003,17106.0,NA,206.341,-206.341,-249.3688227938788,-24.70040001154492
116.0,275.40000000000003,17256.0,NA,206.084,-206.084,-249.247574776352,-24.68839019211375
117.0,277.90000000000003,17406.0,NA,206.241,-206.241,-249.6253772426893,-24.72581215986147
118.0,280.40000000000003,17556.0,NA,206.585,-206.585,-250.22843033918917,-24.785545580201912
119.0,282.90000000000003,17706.0,NA,206.994,-206.994,-250.909378068583,-24.852994594535527
120.0,285.40000000000003,17856.0,NA,206.74,-206.74,-250.78531565886195,-24.84070600483865
121.0,287.90000000000003,18006.0,NA,206.826,-206.826,-251.0720777448724,-24.86911027026865
122.0,290.40000000000003,18156.0,NA,206.237,-206.237,-250.53756269370857,-24.816165658235686
123.0,292.90000000000003,18306.0,NA,206.042,-206.042,-250.47959041102933,-24.810423406434857
124.0,295.40000000000003,18456.0,NA,206.415,-206.415,-251.1108938760864,-24.872955073147953
125.0,297.90000000000003,18606.0,NA,206.163,-206.163,-250.9806139073956,-24.860050623810217
126.0,300.40000000000003,18756.0,NA,206.106,-206.106,-251.0861319560767,-24.870502363452967
127.0,302.90000000000003,18906.0,NA,205.235,-205.235,-250.19791811965692,-24.782523293697757
128.0,305.40000000000003,19056.0,NA,205.11,-205.11,-250.21702510084933,-24.784415872221317
129.0,307.90000000000003,19206.0,NA,204.735,-204.735,-249.9294867052539,-24.7559347120253
130.0,310.40000000000003,19356.0,NA,204.3,-204.3,-249.56680864072118,-24.720010841635233
131.0,312.90000000000003,19506.0,NA,203.876,-203.876,-249.21566255052028,-24.68522923263826
132.0,315.40000000000003,19656.0,NA,203.435,-203.435,-248.8418554457849,-24.648203012156184
133.0,317.90000000000003,19806.0,NA,203.05,-203.05,-248.53472781123446,-24.617781504996625
134.0,320.40000000000003,19956.0,NA,203.287,-203.287,-248.98768477844186,-24.662647652066205
135.0,322.90000000000003,20106.0,NA,202.931,-202.931,-248.71312915434143,-24.63545245715483
136.0,325.40000000000003,20256.0,NA,202.925,-202.925,-248.86616201386605,-24.650610618479163
137.0,327.90000000000003,20406.0,NA,203.054,-203.054,-249.18379000281823,-24.68207220334804
138.0,330.40000000000003,20556.0,NA,203.104,-203.104,-249.40356564873375,-24.703841349571245
139.0,332.90000000000003,20706.0,NA,203.337,-203.337,-249.84725148128524,-24.747789175208357
140.0,335.40000000000003,20856.0,NA,203.015,-203.015,-249.60791423559434,-24.724082419728692
141.0,337.90000000000003,21006.0,NA,202.933,-202.933,-249.66236014768475,-24.729475378610076
142.0,340.40000000000003,21156.0,NA,203.391,-203.391,-250.38046900507769,-24.800605264979634
143.0,342.90000000000003,21306.0,NA,203.142,-203.142,-250.22744744383598,-24.78544822276917
144.0,345.40000000000003,21456.0,NA,203.299,-203.299,-250.5735277669293,-24.819728059040422
145.0,347.90000000000003,21606.0,NA,202.998,-202.998,-250.35408342936358,-24.797991729464766
146.0,350.40000000000003,21756.0,NA,202.875,-202.875,-250.35295035679576,-24.797879496727113
147.0,352.90000000000003,21906.0,NA,202.7,-202.7,-250.28654797109905,-24.791302229087744
148.0,355.40000000000003,22056.0,NA,202.449,-202.449,-250.12512827029622,-24.775313337072685
149.0,357.90000000000003,22206.0,NA,202.135,-202.135,-249.884614577411,-24.751490052525888
150.0,360.40000000000003,22356.0,NA,201.543,-201.543,-249.29894447917928,-24.693478447309776
151.0,362.90000000000003,22506.0,NA,201.243,-201.243,-249.07300966083727,-24.671099224730714
152.0,365.40000000000003,22656.0,NA,200.793,-200.793,-248.66009259293725,-24.630199096821958
153.0,367.90000000000003,22806.0,NA,200.788,-200.788,-248.79715766573156,-24.643775622097653
154.0,370.40000000000003,22956.0,NA,200.76,-200.76,-248.9049397251498,-24.654451615799957
155.0,372.90000000000003,23106.0,NA,200.641,-200.641,-248.89904947689107,-24.653868176833818
156.0,375.40000000000003,23256.0,NA,200.637,-200.637,-249.03500158512958,-24.667334461104165
157.0,377.90000000000003,23406.0,NA,200.736,-200.736,-249.29814951809666,-24.693399705081642
158.0,380.40000000000003,23556.0,NA,200.562,-200.562,-249.22149854251256,-24.685807297430234
159.0,382.90000000000003,23706.0,NA,200.515,-200.515,-249.301817721247,-24.693763046754118
160.0,385.40000000000003,23856.0,NA,200.256,-200.256,-249.11766988702936,-24.67552289501632
161.0,387.90000000000003,24006.0,NA,200.12,-200.12,-249.08560112054192,-24.672346429926414
162.0,390.40000000000003,24156.0,NA,200.135,-200.135,-249.24074867527614,-24.687714055356942
163.0,392.90000000000003,24306.0,NA,200.033,-200.033,-249.24949479262708,-24.688580372945065
164.0,395.40000000000003,24456.0,NA,200.0,-200.0,-249.34350410089655,-24.69789215255347
165.0,397.90000000000003,24606.0,NA,200.227,-200.227,-249.76118051137993,-24.73926370132504
166.0,400.40000000000003,24756.0,NA,199.789,-199.789,-249.34860338601212,-24.698397245294082
167.0,402.90000000000003,24906.0,NA,199.379,-199.379,-248.96981990285843,-24.660878106185837
168.0,405.40000000000003,25056.0,NA,198.889,-198.889,-248.48996705474187,-24.613347877016192
169.0,407.90000000000003,25206.0,NA,198.904,-198.904,-248.64018097904696,-24.628226818080556
170.0,410.40000000000003,25356.0,NA,198.864,-198.864,-248.721076817709,-24.63623968653714
171.0,412.90000000000003,25506.0,NA,198.39,-198.39,-248.2582898911967,-24.59039986551663
172.0,415.40000000000003,25656.0,NA,197.997,-197.997,-247.89577036874175,-24.554491698985192
173.0,417.90000000000003,25806.0,NA,197.516,-197.516,-247.42198957944288,-24.507562917422387
174.0,420.40000000000003,25956.0,NA,197.703,-197.703,-247.78429659097608,-24.543450034390712
175.0,422.90000000000003,26106.0,NA,198.157,-198.157,-248.4811597776687,-24.612475501455034
176.0,425.40000000000003,26256.0,NA,198.302,-198.302,-248.79045072961986,-24.643111288830347
177.0,427.90000000000003,26406.0,NA,198.511,-198.511,-249.17978836693507,-24.681675834604317
178.0,430.40000000000003,26556.0,NA,197.925,-197.925,-248.57050086781166,-24.621324886230862
179.0,432.90000000000003,26706.0,NA,197.797,-197.797,-248.5354970327785,-24.617857697680304
180.0,435.40000000000003,26856.0,NA,197.657,-197.657,-248.48479927579314,-24.612835999846563
181.0,437.90000000000003,27006.0,NA,197.135,-197.135,-247.9530151304851,-24.5601618886175
182.0,440.40000000000003,27156.0,NA,197.29,-197.29,-248.2720916554289,-24.591766953405088
183.0,442.90000000000003,27306.0,NA,196.94,-196.94,-247.95513030022562,-24.560371399726776
184.0,445.40000000000003,27456.0,NA,197.072,-197.072,-248.24448011216327,-24.589031983748672
185.0,447.90000000000003,27606.0,NA,197.307,-197.307,-248.66340363582154,-24.630527061171236
186.0,450.40000000000003,27756.0,NA,196.875,-196.875,-248.24120124287796,-24.588707206248323
187.0,452.90000000000003,27906.0,NA,196.5,-196.5,-247.8899863894621,-24.55391878613961
188.0,455.40000000000003,28056.0,NA,195.931,-195.931,-247.29307693502014,-24.49479390384598
189.0,457.90000000000003,28206.0,NA,195.313,-195.313,-246.63322476151572,-24.429434439693885
190.0,460.40000000000003,28356.0,NA,195.35,-195.35,-246.7997644993524,-24.445930479961852
191.0,462.90000000000003,28506.0,NA,194.971,-194.971,-246.44018200702234,-24.41031323118877
192.0,465.40000000000003,28656.0,NA,195.093,-195.093,-246.71335567301634,-24.43737154083259
193.0,467.90000000000003,28806.0,NA,194.896,-194.896,-246.582743200409,-24.424434156424418
194.0,470.40000000000003,28956.0,NA,195.136,-195.136,-247.0047215658193,-24.466231821044534
195.0,472.90000000000003,29106.0,NA,194.85,-194.85,-246.76053593172003,-24.442044824563784
196.0,475.40000000000003,29256.0,NA,194.642,-194.642,-246.61451778271314,-24.427581482077716
197.0,477.90000000000003,29406.0,NA,194.666,-194.666,-246.7620289818346,-24.44219271368101
198.0,480.40000000000003,29556.0,NA,195.187,-195.187,-247.53957226021862,-24.51920967910274
199.0,482.90000000000003,29706.0,NA,194.991,-194.991,-247.40770361917095,-24.50614786910435
200.0,485.40000000000003,29856.0,NA,194.551,-194.551,-246.9655751956177,-24.462354307439803
201.0,487.90000000000003,30006.0,NA,194.704,-194.704,-247.27575526043404,-24.493078162935177
202.0,490.40000000000003,30156.0,NA,194.415,-194.415,-247.0242348839746,-24.468164647925573
203.0,492.90000000000003,30306.0,NA,194.928,-194.928,-247.79160058168887,-24.544173506917332
204.0,495.40000000000003,30456.0,NA,194.87,-194.87,-247.83311882899974,-24.548285958926638
205.0,497.90000000000003,30606.0,NA,194.985,-194.985,-248.09443097962028,-24.574169365584652
206.0,500.40000000000003,30756.0,NA,194.959,-194.959,-248.17613719797743,-24.582262503508794
207.0,502.90000000000003,30906.0,NA,194.572,-194.572,-247.79781231728845,-24.544788789743613
208.0,505.40000000000003,31056.0,NA,194.421,-194.421,-247.7194882432472,-24.537030658884763
209.0,507.90000000000003,31206.0,NA,194.066,-194.066,-247.38070708714324,-24.503473817342233
210.0,510.40000000000003,31356.0,NA,194.126,-194.126,-247.57053321715264,-24.522276413798934
211.0,512.9,31506.0,NA,193.484,-193.484,-246.86452799515695,-24.452345412809496
212.0,515.4,31656.0,NA,192.943,-192.943,-246.28647905735005,-24.395088696311777
213.0,517.9,31806.0,NA,192.822,-192.822,-246.24394929854958,-24.390876052393438
214.0,520.4,31956.0,NA,192.866,-192.866,-246.41187898439907,-24.407509769342585
215.0,522.9,32106.0,NA,192.752,-192.752,-246.37769735748336,-24.40412402188465
216.0,525.4,32256.0,NA,192.909,-192.909,-246.68973536995168,-24.43503191021015
