"Frame","Time (aligned)","Time [ s]","Intensity Ch3-T2","background","Intensity (bg-subst)","bleach-Corrected","Normalized"
1.0,-12.200000000000001,0.0,237.681,238.025,-0.3439999999999941,-0.3439999999999941,-2.0816549774304
2.0,-9.733333333333334,148.0,231.803,231.6,0.20300000000000296,0.20367418824707792,1.2324982201704457
3.0,-7.233333333333333,298.0,229.789,229.426,0.36299999999999955,0.36539748698911007,2.2111380742193427
4.0,-4.733333333333333,448.0,229.02,228.213,0.8070000000000164,0.8149495955076792,4.9315229123357005
5.0,-0.3333333333333333,712.0,227.729,227.94,-0.2109999999999843,-0.2137556221861364,-1.2935042292950887
6.0,0.39999999999999997,756.0,229.732,229.856,-0.12399999999999523,-0.1260127625947944,-0.7625438792884117
7.0,2.9,906.0,225.649,224.963,0.686000000000007,0.6992860777573604,4.231605652358768
8.0,5.4,1056.0,226.966,226.403,0.5630000000000166,0.5756486917458767,3.483435943093381
9.0,7.8999999999999995,1206.0,228.509,228.253,0.2560000000000002,0.26253558293153856,1.5886875086105763
10.0,10.399999999999999,1356.0,226.465,226.284,0.1810000000000116,0.1861687839540286,1.1265673713955673
11.0,12.899999999999999,1506.0,224.339,223.719,0.6200000000000045,0.6395600461299237,3.8701841668371944
12.0,15.399999999999999,1656.0,222.099,221.465,0.6339999999999861,0.6558760669620811,3.968917672584634
13.0,17.900000000000002,1806.0,221.25,220.336,0.9139999999999873,0.9482075787969362,5.737909959418327
14.0,20.400000000000002,1956.0,220.855,219.753,1.1020000000000039,1.146424869390992,6.937386731447081
15.0,22.900000000000002,2106.0,220.607,219.753,0.8540000000000134,0.8908631469830364,5.390900302693546
16.0,25.400000000000002,2256.0,219.485,219.056,0.42900000000000205,0.4487269322522743,2.7153914303198743
17.0,27.900000000000002,2406.0,219.176,218.279,0.8969999999999914,0.9407448949233372,5.6927508517716205
18.0,30.400000000000002,2556.0,218.427,217.397,1.0300000000000011,1.083064580208279,6.553973181015028
19.0,32.9,2706.0,217.534,216.426,1.108000000000004,1.1680944553493735,7.0685163868805745
20.0,35.4,2856.0,216.862,215.436,1.4259999999999877,1.5071706380879755,9.120375757595466
21.0,37.9,3006.0,216.069,214.673,1.3959999999999866,1.4791659039784402,8.950910076924739
22.0,40.4,3156.0,215.071,213.792,1.2789999999999964,1.358547107725476,8.221006828111802
23.0,42.9,3306.0,214.496,213.21,1.2860000000000014,1.3693112534752963,8.286144146652209
24.0,45.4,3456.0,214.683,213.505,1.1779999999999973,1.257326745047141,7.608489758964505
25.0,47.9,3606.0,216.245,214.457,1.788000000000011,1.9129202912794092,11.575697807469364
26.0,50.4,3756.0,216.696,214.866,1.829999999999984,1.9624202786860472,11.875238200398934
27.0,52.9,3906.0,216.211,214.365,1.8460000000000036,1.984127216039151,12.006593881171781
28.0,55.4,4056.0,215.662,213.947,1.7150000000000034,1.8474996607774672,11.179816467030397
29.0,57.9,4206.0,214.9,213.348,1.5519999999999925,1.6756378193943953,10.139825020677398
30.0,60.4,4356.0,214.373,212.782,1.5909999999999798,1.721522901037472,10.417490452631213
31.0,62.9,4506.0,213.457,211.753,1.7040000000000077,1.8477900284959867,11.181573575770342
32.0,65.4,4656.0,212.543,210.889,1.6539999999999964,1.7974026338039093,10.876663195071172
33.0,67.9,4806.0,211.976,210.321,1.6550000000000011,1.8022762487394595,10.906155011317297
34.0,70.4,4956.0,211.441,209.778,1.663000000000011,1.8147465130178952,10.981616603483223
35.0,72.9,5106.0,211.217,209.367,1.8500000000000227,2.022939473811657,12.241459374129485
36.0,75.4,5256.0,211.576,209.572,2.0039999999999907,2.195753607530143,13.287213448621971
37.0,77.9,5406.0,212.137,209.905,2.2319999999999993,2.4504299944727173,14.828342426857464
38.0,80.4,5556.0,212.757,210.22,2.537000000000006,2.790734342929312,16.88763382454901
39.0,82.9,5706.0,212.947,210.474,2.473000000000013,2.725586475372766,16.49340306068836
40.0,85.4,5856.0,212.739,210.395,2.343999999999994,2.588328378956066,15.662810038599844
41.0,87.9,6006.0,211.876,209.944,1.9320000000000164,2.137386687810467,12.934016387715733
42.0,90.4,6156.0,211.714,209.632,2.0819999999999936,2.307594003865948,13.963995767547033
43.0,92.9,6306.0,212.026,209.055,2.9710000000000036,3.298926995665161,19.96287151368028
44.0,95.4,6456.0,211.731,208.969,2.7620000000000005,3.072373210770236,18.59192147303428
45.0,97.9,6606.0,211.392,209.158,2.234000000000009,2.489446274993411,15.064442527283989
46.0,100.4,6756.0,211.284,208.997,2.2869999999999777,2.552961600123374,15.448794250248813
47.0,102.9,6906.0,211.385,209.189,2.195999999999998,2.4556043679802184,14.85965423024983
48.0,105.4,7056.0,211.316,208.963,2.3530000000000086,2.6356365720290276,15.949087176924177
49.0,107.9,7206.0,211.257,208.693,2.563999999999993,2.876795057175936,17.408414970399892
50.0,110.4,7356.0,210.684,208.241,2.4429999999999836,2.74556428273964,16.614295218081967
51.0,112.9,7506.0,210.185,207.963,2.2220000000000084,2.5012641726651426,15.135956438653533
52.0,115.4,7656.0,210.313,207.772,2.540999999999997,2.8649550422834236,17.33676722059219
53.0,117.9,7806.0,210.326,207.514,2.8119999999999834,3.175532388159681,19.216170935477205
54.0,120.4,7956.0,210.292,207.744,2.548000000000002,2.881902918163595,17.43932428507717
55.0,122.9,8106.0,210.384,207.891,2.492999999999995,2.8240453343638534,17.08920938013871
56.0,125.4,8256.0,210.43,207.529,2.9010000000000105,3.2912244839867397,19.916261130616032
57.0,127.89999999999999,8406.0,211.165,207.95,3.2150000000000034,3.652937389517687,22.105102613753594
58.0,130.39999999999998,8556.0,210.024,206.975,3.0490000000000066,3.469456036702446,20.99479775516779
59.0,132.89999999999998,8706.0,209.175,205.816,3.359000000000009,3.827789710848428,23.163190419025113
60.0,135.39999999999998,8856.0,208.51,205.059,3.4509999999999934,3.938298839285195,23.831916806414345
61.0,137.89999999999998,9006.0,207.67,204.391,3.2789999999999964,3.747334416627558,22.676329478107952
62.0,140.39999999999998,9156.0,207.418,203.88,3.538000000000011,4.049002277247617,24.501819023429277
63.0,142.89999999999998,9306.0,206.653,203.276,3.376999999999981,3.8701017495339927,23.419234215347892
64.0,145.39999999999998,9456.0,206.69,203.506,3.1839999999999975,3.6539081413203265,22.11097694608445
65.0,147.89999999999998,9606.0,207.233,203.971,3.2620000000000005,3.748469809168583,22.683200104661328
66.0,150.39999999999998,9756.0,206.786,203.888,2.897999999999996,3.3346197926649808,20.178860143136934
67.0,152.89999999999998,9906.0,206.037,203.062,2.9749999999999943,3.427719818262355,20.74223843291506
68.0,155.39999999999998,10056.0,205.428,202.32,3.108000000000004,3.5856047237177378,21.697650930886955
69.0,157.89999999999998,10206.0,204.889,202.221,2.6680000000000064,3.0819320892418274,18.649765330444282
70.0,160.39999999999998,10356.0,206.192,202.81,3.382000000000005,3.9116464190314497,23.670634413153365
71.0,162.89999999999998,10506.0,206.517,203.41,3.1069999999999993,3.598065170922336,21.773053116772015
72.0,165.39999999999998,10656.0,206.396,203.227,3.1689999999999827,3.6743874981405953,22.234904141024817
73.0,167.89999999999998,10806.0,206.057,202.889,3.167999999999978,3.6776984172041254,22.254939580409893
74.0,170.39999999999998,10956.0,205.616,202.321,3.295000000000016,3.8297284741248365,23.174922501072775
75.0,172.89999999999998,11106.0,204.791,201.686,3.1049999999999898,3.6131776284891943,21.86450347292102
76.0,175.39999999999998,11256.0,204.709,201.58,3.1289999999999907,3.6453736369597816,22.059331906892503
77.0,177.89999999999998,11406.0,204.659,201.236,3.423000000000002,3.9925090543192483,24.159960306278332
78.0,180.39999999999998,11556.0,204.665,201.096,3.5689999999999884,4.167560794423436,25.219254858882234
79.0,182.89999999999998,11706.0,205.268,201.566,3.701999999999998,4.327750007984478,26.188611468591564
80.0,185.39999999999998,11856.0,205.341,201.895,3.445999999999998,4.032974339710797,24.404828802640132
81.0,187.89999999999998,12006.0,205.47,201.614,3.8559999999999945,4.517787821668805,27.33859158706824
82.0,190.39999999999998,12156.0,205.754,202.085,3.6689999999999827,4.303377318506194,26.041124461714134
83.0,192.89999999999998,12306.0,205.028,201.65,3.377999999999986,3.9663283381609924,24.001532346675056
84.0,195.39999999999998,12456.0,205.175,201.551,3.6240000000000236,4.2596999036759104,25.77681833385729
85.0,197.89999999999998,12606.0,205.068,201.264,3.804000000000002,4.4759756486827555,27.08557263935431
86.0,200.39999999999998,12756.0,204.641,201.081,3.5600000000000023,4.193226182671801,25.374564403053437
87.0,202.89999999999998,12906.0,204.519,200.781,3.7379999999999995,4.407410081230942,26.6706602708473
88.0,205.39999999999998,13056.0,203.876,200.376,3.5,4.130978780755267,24.997885292496267
89.0,207.89999999999998,13206.0,202.592,199.089,3.5030000000000143,4.138669913120499,25.044426815665343
90.0,210.39999999999998,13356.0,202.404,198.298,4.1059999999999945,4.855907423016737,29.384662375186608
91.0,212.89999999999998,13506.0,201.068,197.66,3.4080000000000155,4.034381822528945,24.413345935239107
92.0,215.39999999999998,13656.0,200.404,197.119,3.2849999999999966,3.892548134346934,23.55506453125248
93.0,217.89999999999998,13806.0,199.538,196.16,3.3780000000000143,4.006589070384147,24.245163025824255
94.0,220.39999999999998,13956.0,199.582,195.843,3.7390000000000043,4.438973780709464,26.86166239911935
95.0,222.89999999999998,14106.0,199.568,195.725,3.8430000000000177,4.566726051981684,27.634732606595687
96.0,225.39999999999998,14256.0,200.071,196.182,3.88900000000001,4.6256797828782545,27.99148065124377
97.0,227.89999999999998,14406.0,200.308,196.757,3.5509999999999877,4.2275330070152375,25.582166064839324
98.0,230.39999999999998,14556.0,199.876,196.507,3.3689999999999998,4.014503168009633,24.29305378371368
99.0,232.89999999999998,14706.0,199.918,196.325,3.5930000000000177,4.285271030946792,25.931557474444315
100.0,235.39999999999998,14856.0,199.42,195.923,3.4969999999999857,4.174484909541662,25.26115491324315
101.0,237.89999999999998,15006.0,199.564,195.93,3.633999999999986,4.3418453315555015,26.273906818795382
102.0,240.39999999999998,15156.0,200.581,196.654,3.9269999999999925,4.696004894704621,28.417040590405712
103.0,242.89999999999998,15306.0,201.045,197.511,3.533999999999992,4.22968985154903,25.595217826930348
104.0,245.39999999999998,15456.0,201.279,197.831,3.4480000000000075,4.130282619637835,24.993672596986972
105.0,247.89999999999998,15606.0,201.58,197.713,3.8670000000000186,4.636107374846203,28.054581374274857
106.0,250.39999999999998,15756.0,201.323,197.907,3.415999999999997,4.09883383777225,24.803365872264244
107.0,252.89999999999998,15906.0,201.62,198.087,3.5330000000000155,4.242732287571184,25.67414181490516
108.0,255.39999999999998,16056.0,201.377,197.602,3.7750000000000057,4.537064558515152,27.455241340570613
109.0,257.90000000000003,16206.0,200.386,196.777,3.609000000000009,4.3410764337134635,26.269253969899992
110.0,260.40000000000003,16356.0,199.906,195.885,4.021000000000015,4.840539536918283,29.291666338589422
111.0,262.90000000000003,16506.0,199.212,194.997,4.214999999999975,5.078121522682222,30.729351580488583
112.0,265.40000000000003,16656.0,198.782,194.497,4.284999999999997,5.166529041721245,31.26433399923817
113.0,267.90000000000003,16806.0,197.756,193.904,3.852000000000004,4.648080621038252,28.127035349657643
114.0,270.40000000000003,16956.0,197.275,193.037,4.2379999999999995,5.117814004814813,30.96954359501729
115.0,272.90000000000003,17106.0,196.828,192.911,3.9170000000000016,4.733803165069586,28.645770118439117
116.0,275.40000000000003,17256.0,196.689,192.524,4.164999999999992,5.03734471838427,30.48259798272539
117.0,277.90000000000003,17406.0,197.107,193.063,4.044000000000011,4.894686437563037,29.619326702657975
118.0,280.40000000000003,17556.0,197.803,193.796,4.007000000000005,4.853524313813357,29.370241412584928
119.0,282.90000000000003,17706.0,197.991,194.136,3.855000000000018,4.672868066003807,28.277032175792325
120.0,285.40000000000003,17856.0,197.701,193.628,4.0730000000000075,4.940740014890909,29.89801175635868
121.0,287.90000000000003,18006.0,197.48,193.732,3.7479999999999905,4.549805862840162,27.532343083498265
122.0,290.40000000000003,18156.0,197.278,193.85,3.4279999999999973,4.164348613071526,25.199816913243826
123.0,292.90000000000003,18306.0,197.849,193.958,3.890999999999991,4.730181643981872,28.623855126002752
124.0,295.40000000000003,18456.0,197.456,193.783,3.673000000000002,4.4683298849737945,27.039305656560657
125.0,297.90000000000003,18606.0,197.57,193.855,3.7150000000000034,4.522600954904496,27.367717409036587
126.0,300.40000000000003,18756.0,198.228,194.157,4.070999999999998,4.95944631982178,30.01120964231415
127.0,302.90000000000003,18906.0,198.207,194.499,3.7079999999999984,4.520349260056459,27.354091677094527
128.0,305.40000000000003,19056.0,198.04,194.157,3.8829999999999814,4.7369348567431775,28.664720995067338
129.0,307.90000000000003,19206.0,197.383,193.42,3.9630000000000223,4.837817450914239,29.275194118010024
130.0,310.40000000000003,19356.0,197.048,193.234,3.813999999999993,4.659069056072974,28.193529915018694
131.0,312.90000000000003,19506.0,197.05,192.805,4.2450000000000045,5.1890388644419145,31.400548198388048
132.0,315.40000000000003,19656.0,197.012,192.64,4.372000000000014,5.347833912596038,32.36146826345008
133.0,317.90000000000003,19806.0,196.419,192.202,4.217000000000013,5.161639730017133,31.23474719678156
134.0,320.40000000000003,19956.0,195.986,191.77,4.21599999999998,5.163793449782356,31.247780049889894
135.0,322.90000000000003,20106.0,195.55,191.124,4.426000000000016,5.424525132370703,32.825551575569676
136.0,325.40000000000003,20256.0,194.522,190.487,4.034999999999997,4.94850296279881,29.944987858544774
137.0,327.90000000000003,20406.0,194.581,190.142,4.438999999999993,5.447451632681495,32.96428722524124
138.0,330.40000000000003,20556.0,194.524,189.909,4.615000000000009,5.667034895762312,34.29305638963834
139.0,332.90000000000003,20706.0,194.345,190.064,4.281000000000006,5.260213751512925,31.83125040170031
140.0,335.40000000000003,20856.0,194.133,189.628,4.505000000000024,5.538919063277878,33.51778615597885
141.0,337.90000000000003,21006.0,194.359,189.737,4.622000000000014,5.686307444341741,34.409680798586415
142.0,340.40000000000003,21156.0,194.749,190.144,4.60499999999999,5.668894197719566,34.30430762560887
143.0,342.90000000000003,21306.0,195.388,191.102,4.286000000000001,5.27943428608698,31.94756005712169
144.0,345.40000000000003,21456.0,196.003,191.573,4.429999999999978,5.460138652956932,33.04106047787242
145.0,347.90000000000003,21606.0,195.381,191.103,4.277999999999992,5.275986802386306,31.926698221060303
146.0,350.40000000000003,21756.0,194.903,190.647,4.256,5.252013095347,31.781625585636377
147.0,352.90000000000003,21906.0,194.575,190.541,4.033999999999992,4.9810356907519076,30.1418538907336
148.0,355.40000000000003,22056.0,194.364,190.345,4.0190000000000055,4.965462365920907,30.047614678089435
149.0,357.90000000000003,22206.0,194.992,190.828,4.163999999999987,5.147646548595426,31.150069941675213
150.0,360.40000000000003,22356.0,195.342,191.006,4.336000000000013,5.363422313162573,32.45579870423352
151.0,362.90000000000003,22506.0,194.954,190.375,4.579000000000008,5.667304260207688,34.29468640079665
152.0,365.40000000000003,22656.0,194.203,189.974,4.229000000000013,5.237152348814624,31.691698414161227
153.0,367.90000000000003,22806.0,194.186,189.869,4.317000000000007,5.3492107578289785,32.369799998137
154.0,370.40000000000003,22956.0,193.888,189.646,4.242000000000019,5.259288475364068,31.825651257221338
155.0,372.90000000000003,23106.0,193.991,189.753,4.238000000000028,5.257321144148362,31.81374630135672
156.0,375.40000000000003,23256.0,193.303,189.275,4.027999999999992,4.999641075100305,30.254441073686646
157.0,377.90000000000003,23406.0,193.018,188.812,4.205999999999989,5.223517539819025,31.609189786219357
158.0,380.40000000000003,23556.0,193.171,188.51,4.661000000000001,5.791831975681591,35.04824378086727
159.0,382.90000000000003,23706.0,193.423,188.599,4.824000000000012,5.997715725443476,36.29411277058782
160.0,385.40000000000003,23856.0,193.611,188.728,4.882999999999981,6.074432636517057,36.7583515490454
161.0,387.90000000000003,24006.0,193.928,189.203,4.724999999999994,5.881118655279628,35.58854628378439
162.0,390.40000000000003,24156.0,193.737,188.906,4.830999999999989,6.016349248508538,36.4068702299932
163.0,392.90000000000003,24306.0,192.529,188.148,4.381,5.45890946337104,33.033622255140806
164.0,395.40000000000003,24456.0,192.25,187.898,4.352000000000004,5.4257146492355135,32.83274972586727
165.0,397.90000000000003,24606.0,192.173,187.448,4.724999999999994,5.893918292319562,35.66600101678869
166.0,400.40000000000003,24756.0,191.699,187.162,4.537000000000006,5.66244694934325,34.265293245744665
167.0,402.90000000000003,24906.0,191.425,186.99,4.435000000000002,5.538101561694952,33.51283919016735
168.0,405.40000000000003,25056.0,191.235,186.91,4.325000000000017,5.403612605582826,32.69900312941087
169.0,407.90000000000003,25206.0,191.607,187.337,4.27000000000001,5.3377185616203455,32.30025701139483
170.0,410.40000000000003,25356.0,191.772,187.305,4.4669999999999845,5.586918950361564,33.80824895790865
171.0,412.90000000000003,25506.0,191.265,187.219,4.045999999999992,5.063022535913,30.637982740481878
172.0,415.40000000000003,25656.0,191.419,187.312,4.106999999999999,5.142037146544756,31.11612564022409
173.0,417.90000000000003,25806.0,190.898,186.723,4.174999999999983,5.229889257043327,31.647747102715716
174.0,420.40000000000003,25956.0,190.712,186.315,4.396999999999991,5.510829638956008,33.34780798751147
175.0,422.90000000000003,26106.0,190.794,186.241,4.552999999999997,5.709284660484993,34.54872334612158
176.0,425.40000000000003,26256.0,191.813,186.83,4.982999999999976,6.251690935974875,37.83099870415361
177.0,427.90000000000003,26406.0,191.841,187.038,4.802999999999997,6.028938061499809,36.483049198665356
178.0,430.40000000000003,26556.0,190.841,186.467,4.373999999999995,5.493229105953301,33.24130148422509
179.0,432.90000000000003,26706.0,190.866,186.102,4.76400000000001,5.986051901010426,36.22353120609092
180.0,435.40000000000003,26856.0,191.077,186.305,4.771999999999991,5.9991270845155125,36.30265335964958
181.0,437.90000000000003,27006.0,191.439,186.894,4.5449999999999875,5.716622891764789,34.59312935097368
182.0,440.40000000000003,27156.0,192.376,187.46,4.915999999999997,6.186353097359663,37.43561836413063
183.0,442.90000000000003,27306.0,192.204,187.622,4.581999999999994,5.768916456969799,34.909574584394
184.0,445.40000000000003,27456.0,191.9,187.374,4.5260000000000105,5.701238719796082,34.50003476332163
185.0,447.90000000000003,27606.0,191.023,186.808,4.215000000000003,5.312108776297793,32.14528393846571
186.0,450.40000000000003,27756.0,190.567,186.205,4.361999999999995,5.50007933877553,33.282754452977855
187.0,452.90000000000003,27906.0,190.263,185.754,4.5090000000000146,5.688223657150576,34.42127642047981
188.0,455.40000000000003,28056.0,189.795,185.498,4.296999999999997,5.423431471231101,32.818933479189226
189.0,457.90000000000003,28206.0,190.134,185.485,4.6489999999999725,5.870566024362331,35.52468890973213
190.0,460.40000000000003,28356.0,190.728,185.967,4.760999999999996,6.014915171647893,36.398192168263606
191.0,462.90000000000003,28506.0,190.891,186.095,4.795999999999992,6.06206621962075,36.683518370890816
192.0,465.40000000000003,28656.0,191.244,186.379,4.865000000000009,6.15224777592854,37.22923606147376
193.0,467.90000000000003,28806.0,190.251,185.787,4.463999999999999,5.647860221074961,34.1770242471862
194.0,470.40000000000003,28956.0,189.702,185.243,4.459000000000003,5.644238138846697,34.15510585910735
195.0,472.90000000000003,29106.0,189.368,184.541,4.826999999999998,6.112974631472477,36.99158159450776
196.0,475.40000000000003,29256.0,188.652,184.017,4.634999999999991,5.872618910219137,35.537111584330724
197.0,477.90000000000003,29406.0,188.931,184.043,4.888000000000005,6.196114358250587,37.49468690285037
198.0,480.40000000000003,29556.0,188.648,183.84,4.807999999999993,6.097589816059108,36.898483113164474
