"Frame","Time (aligned)","Time [ s]","Intensity Ch3-T2","background","Intensity (bg-subst)","bleach-Corrected","Normalized"
1.0,-12.200000000000001,0.0,241.582,239.636,1.945999999999998,1.945999999999998,0.7683483378527063
2.0,-9.733333333333334,148.0,236.54,234.075,2.4650000000000034,2.473186571571628,0.9764998928400285
3.0,-7.233333333333333,298.0,234.485,231.834,2.6510000000000105,2.6685089201326058,1.0536199349069937
4.0,-4.733333333333333,448.0,233.448,230.907,2.540999999999997,2.566030882509254,1.0131580490517473
5.0,-0.3333333333333333,712.0,234.296,231.325,2.9710000000000036,3.009800727559522,1.1883737853485237
6.0,0.39999999999999997,756.0,234.842,232.167,2.6750000000000114,2.7184204833958825,1.0733267523134526
7.0,2.9,906.0,231.135,228.067,3.0679999999999836,3.127419368162607,1.2348137067297544
8.0,5.4,1056.0,231.142,228.295,2.8470000000000084,2.9109623896988768,1.1493489792789702
9.0,7.8999999999999995,1206.0,232.593,229.022,3.570999999999998,3.6621662759707925,1.4459503448522077
10.0,10.399999999999999,1356.0,231.361,228.156,3.204999999999984,3.2965245998487323,1.3015823211635835
11.0,12.899999999999999,1506.0,229.946,226.49,3.455999999999989,3.565031482943537,1.4075981574060832
12.0,15.399999999999999,1656.0,227.9,224.767,3.1330000000000098,3.2411036558237405,1.279700209023897
13.0,17.900000000000002,1806.0,227.204,223.934,3.2700000000000102,3.3923837884748735,1.3394308557210373
14.0,20.400000000000002,1956.0,227.462,224.496,2.9659999999999798,3.0855682056385185,1.218289415279299
15.0,22.900000000000002,2106.0,227.777,225.099,2.6779999999999973,2.7935966131387957,1.1030088973978138
16.0,25.400000000000002,2256.0,226.919,224.318,2.600999999999999,2.720603148690348,1.0741885443232633
17.0,27.900000000000002,2406.0,225.466,222.993,2.473000000000013,2.5936032610317143,1.0240445810190537
18.0,30.400000000000002,2556.0,224.583,221.075,3.5080000000000098,3.688728686767621,1.456438106509507
19.0,32.9,2706.0,224.006,220.242,3.76400000000001,3.9681475901940773,1.5667623870913896
20.0,35.4,2856.0,223.296,219.797,3.4989999999999952,3.698169749417857,1.4601657657052274
21.0,37.9,3006.0,222.668,219.205,3.462999999999994,3.6693062503419616,1.4487694545338106
22.0,40.4,3156.0,221.504,218.753,2.7510000000000048,2.9220978055924953,1.1537456279393816
23.0,42.9,3306.0,222.139,218.585,3.554000000000002,3.7842396538500784,1.4941491511161415
24.0,45.4,3456.0,223.443,220.138,3.305000000000007,3.5275593313928857,1.3928028514658428
25.0,47.9,3606.0,224.122,220.503,3.619000000000028,3.871844817751786,1.5287387102483054
26.0,50.4,3756.0,222.305,219.125,3.180000000000007,3.4101073695200532,1.3464287406320659
27.0,52.9,3906.0,221.046,217.794,3.251999999999981,3.4953313686669927,1.3800781332783718
28.0,55.4,4056.0,220.107,216.723,3.383999999999986,3.6454453947935344,1.4393483606487243
29.0,57.9,4206.0,219.627,216.064,3.5630000000000166,3.846841205220546,1.5188664162458945
30.0,60.4,4356.0,219.584,215.992,3.592000000000013,3.886681496245569,1.534596745839237
31.0,62.9,4506.0,220.234,216.17,4.064000000000021,4.40693584261015,1.7400112177250915
32.0,65.4,4656.0,219.821,215.757,4.063999999999993,4.416350848717709,1.7437285888934448
33.0,67.9,4806.0,219.28,215.168,4.111999999999995,4.477921410765343,1.7680387836570401
34.0,70.4,4956.0,218.816,214.753,4.063000000000017,4.4337432846612685,1.750595726225636
35.0,72.9,5106.0,218.677,214.885,3.7920000000000016,4.14647918091552,1.6371738882822682
36.0,75.4,5256.0,218.997,214.969,4.02800000000002,4.413420923718314,1.7425717528177418
37.0,77.9,5406.0,219.11,215.056,4.054000000000002,4.450736199638174,1.7573051188144218
38.0,80.4,5556.0,219.229,214.78,4.449000000000012,4.893960225341945,1.9323053466900015
39.0,82.9,5706.0,218.818,214.637,4.181000000000012,4.608037627793573,1.8194131819516561
40.0,85.4,5856.0,218.459,214.491,3.9679999999999893,4.381607085195251,1.7300105452381374
41.0,87.9,6006.0,218.421,214.24,4.180999999999983,4.625472951208826,1.8262972527461236
42.0,90.4,6156.0,218.744,214.151,4.592999999999989,5.0906720748109064,2.0099740119394407
43.0,92.9,6306.0,218.629,213.993,4.635999999999996,5.1477029794357625,2.032491792399227
44.0,95.4,6456.0,218.028,213.765,4.263000000000005,4.742044532046897,1.8723237585928836
45.0,97.9,6606.0,217.453,213.264,4.188999999999993,4.667990351811701,1.8430845981125354
46.0,100.4,6756.0,217.569,213.201,4.367999999999995,4.875966886462175,1.9252009520236646
47.0,102.9,6906.0,217.195,212.968,4.227000000000004,4.726702943284336,1.8662663669044286
48.0,105.4,7056.0,216.593,212.385,4.207999999999998,4.7134546090514675,1.8610354647527627
49.0,107.9,7206.0,216.209,212.167,4.042000000000002,4.535103596374871,1.7906162950999311
50.0,110.4,7356.0,216.291,211.628,4.663000000000011,5.240510131156389,2.0691352768624274
51.0,112.9,7506.0,215.881,211.348,4.532999999999987,5.102713994010359,2.0147285795660883
52.0,115.4,7656.0,215.671,211.101,4.569999999999993,5.152634609695097,2.034438971182713
53.0,117.9,7806.0,215.589,211.33,4.258999999999986,4.809599018909003,1.8989966145512553
54.0,120.4,7956.0,215.616,211.698,3.9180000000000064,4.431434706972126,1.7496842196324927
55.0,122.9,8106.0,216.217,211.749,4.468000000000018,5.061305476910459,1.9983790598915487
56.0,125.4,8256.0,216.854,212.193,4.661000000000001,5.287968741765647,2.087873583428934
57.0,127.89999999999999,8406.0,217.242,212.402,4.840000000000003,5.499289880331446,2.171310503043617
58.0,130.39999999999998,8556.0,215.707,211.383,4.323999999999984,4.920278092063394,1.9426965538591972
59.0,132.89999999999998,8706.0,214.4,209.581,4.819000000000017,5.491550645007023,2.168254784339726
60.0,135.39999999999998,8856.0,213.519,208.701,4.818000000000012,5.498326226507144,2.1709300190692247
61.0,137.89999999999998,9006.0,213.184,207.828,5.3559999999999945,6.120989062353523,2.4167789167903027
62.0,140.39999999999998,9156.0,212.012,207.11,4.901999999999987,5.610008242811674,2.215025955140974
63.0,142.89999999999998,9306.0,212.158,207.482,4.675999999999988,5.358778732846019,2.1158318254381676
64.0,145.39999999999998,9456.0,214.347,210.203,4.1440000000000055,4.75558898794958,1.8776715798569874
65.0,147.89999999999998,9606.0,214.455,210.606,3.849000000000018,4.423010513638854,1.746358055734564
66.0,150.39999999999998,9756.0,214.076,209.854,4.22199999999998,4.858096882205487,1.9181452541469703
67.0,152.89999999999998,9906.0,212.84,208.703,4.1370000000000005,4.766546853160132,1.881998125345652
68.0,155.39999999999998,10056.0,212.021,207.681,4.339999999999975,5.00692551510131,1.976907963658993
69.0,157.89999999999998,10206.0,212.227,207.707,4.52000000000001,5.221264259135329,2.061536338641509
70.0,160.39999999999998,10356.0,213.335,208.83,4.5049999999999955,5.210516593062282,2.0572927870674995
71.0,162.89999999999998,10506.0,212.397,208.191,4.205999999999989,4.870763472449085,1.9231464635816724
72.0,165.39999999999998,10656.0,212.279,207.928,4.350999999999999,5.044891134241027,1.991898107729677
73.0,167.89999999999998,10806.0,211.519,206.935,4.584000000000003,5.321518164287828,2.1011200598065476
74.0,170.39999999999998,10956.0,210.651,206.41,4.241000000000014,4.929249911612566,1.9462389395930721
75.0,172.89999999999998,11106.0,210.603,206.036,4.567000000000007,5.314454824254502,2.0983312080211958
76.0,175.39999999999998,11256.0,211.254,206.201,5.052999999999997,5.886888139200327,2.324347747625584
77.0,177.89999999999998,11406.0,210.736,206.058,4.677999999999997,5.456312403185925,2.154341503490758
78.0,180.39999999999998,11556.0,210.705,205.838,4.867000000000019,5.683249758043992,2.243944247273844
79.0,182.89999999999998,11706.0,210.535,205.732,4.802999999999997,5.614852319921514,2.216938564902421
80.0,185.39999999999998,11856.0,210.436,205.486,4.950000000000017,5.793158149033234,2.287339894515699
81.0,187.89999999999998,12006.0,209.846,205.283,4.563000000000017,5.346127030672941,2.110836494330412
82.0,190.39999999999998,12156.0,209.975,205.051,4.924000000000007,5.775369287632769,2.2803162346547845
83.0,192.89999999999998,12306.0,209.838,205.069,4.7690000000000055,5.599591428268169,2.2109130352333572
84.0,195.39999999999998,12456.0,210.208,204.918,5.289999999999992,6.217939428930846,2.455058286273292
85.0,197.89999999999998,12606.0,210.07,205.06,5.009999999999991,5.895015247082164,2.3275566118766426
86.0,200.39999999999998,12756.0,209.677,204.738,4.938999999999993,5.817512392195502,2.296955794954234
87.0,202.89999999999998,12906.0,209.917,204.872,5.0449999999999875,5.948470802517402,2.3486627203903416
88.0,205.39999999999998,13056.0,209.822,204.593,5.229000000000013,6.171682298448386,2.4367943657593996
89.0,207.89999999999998,13206.0,208.806,203.983,4.8230000000000075,5.698202966308911,2.2498482928627013
90.0,210.39999999999998,13356.0,207.543,202.355,5.188000000000017,6.135520630933012,2.42251648439793
91.0,212.89999999999998,13506.0,206.491,201.396,5.095000000000027,6.031448176580104,2.3814250674820467
92.0,215.39999999999998,13656.0,206.075,201.053,5.021999999999991,5.9507996136043495,2.349582215831158
93.0,217.89999999999998,13806.0,205.538,200.158,5.380000000000024,6.381127649102047,2.519490659205298
94.0,220.39999999999998,13956.0,205.424,200.142,5.282000000000011,6.270836991095856,2.475944079678197
95.0,222.89999999999998,14106.0,206.1,201.356,4.744,5.637405253864431,2.22584324594494
96.0,225.39999999999998,14256.0,207.099,202.443,4.6559999999999775,5.5379699329084575,2.186582730230463
97.0,227.89999999999998,14406.0,207.841,203.13,4.711000000000013,5.608535059433654,2.214444291215047
98.0,230.39999999999998,14556.0,207.653,202.835,4.817999999999984,5.741132758524888,2.2667984647504236
99.0,232.89999999999998,14706.0,207.507,202.381,5.126000000000005,6.113637435188746,2.4138762392401647
100.0,235.39999999999998,14856.0,207.196,202.369,4.826999999999998,5.762150030985897,2.2750968133432363
101.0,237.89999999999998,15006.0,206.826,201.9,4.925999999999988,5.885506357524059,2.323802172263695
102.0,240.39999999999998,15156.0,208.252,202.909,5.343000000000018,6.389293137867818,2.5227146775613796
103.0,242.89999999999998,15306.0,208.249,203.319,4.930000000000007,5.900501122845727,2.3297226260208355
104.0,245.39999999999998,15456.0,208.032,203.07,4.9620000000000175,5.943869593573946,2.3468460034099623
105.0,247.89999999999998,15606.0,207.296,201.941,5.35499999999999,6.420055596664404,2.5348607639357987
106.0,250.39999999999998,15756.0,206.734,201.305,5.429000000000002,6.514218063602335,2.572039373884344
107.0,252.89999999999998,15906.0,206.5,200.694,5.806000000000012,6.972347484188575,2.752924768965979
108.0,255.39999999999998,16056.0,206.555,200.831,5.724000000000018,6.879511929255835,2.716270069928875
109.0,257.90000000000003,16206.0,206.481,201.094,5.3870000000000005,6.479739193243106,2.558425919243259
110.0,260.40000000000003,16356.0,205.61,200.125,5.485000000000014,6.602924486445349,2.6070637482668153
111.0,262.90000000000003,16506.0,204.789,199.16,5.628999999999991,6.78167166101503,2.677639336384227
112.0,265.40000000000003,16656.0,204.144,198.435,5.709000000000003,6.883480583240753,2.717837032258178
113.0,267.90000000000003,16806.0,203.186,197.582,5.604000000000013,6.762160903504258,2.6699358121788572
114.0,270.40000000000003,16956.0,202.402,197.185,5.2169999999999845,6.300055607154036,2.4874806033589056
115.0,272.90000000000003,17106.0,202.417,196.911,5.506,6.654153746967867,2.627290838283208
116.0,275.40000000000003,17256.0,202.532,196.718,5.814000000000021,7.031722015050736,2.7763678944021177
117.0,277.90000000000003,17406.0,203.376,197.943,5.432999999999993,6.575873248090967,2.596382980524551
118.0,280.40000000000003,17556.0,204.727,199.326,5.4010000000000105,6.54202266506263,2.5830175955270342
119.0,282.90000000000003,17706.0,204.844,199.349,5.4950000000000045,6.660806750373754,2.6299176749269093
120.0,285.40000000000003,17856.0,205.156,199.343,5.813000000000017,7.051441617127641,2.7841538776903536
121.0,287.90000000000003,18006.0,204.539,199.28,5.258999999999986,6.384052570084421,2.5206455195214117
122.0,290.40000000000003,18156.0,204.636,199.328,5.307999999999993,6.448180407871543,2.545965415499738
123.0,292.90000000000003,18306.0,204.558,199.173,5.384999999999991,6.546396338432896,2.584744473566271
124.0,295.40000000000003,18456.0,204.464,198.807,5.657000000000011,6.881933612659077,2.71722623458339
125.0,297.90000000000003,18606.0,204.832,198.881,5.950999999999993,7.244683252392085,2.8604523819346364
126.0,300.40000000000003,18756.0,204.792,199.472,5.319999999999993,6.481025404434255,2.5589337600607545
127.0,302.90000000000003,18906.0,203.906,198.281,5.625,6.857325940619631,2.707510271628646
128.0,305.40000000000003,19056.0,203.047,197.288,5.758999999999986,7.0254977697615315,2.7739103463433574
129.0,307.90000000000003,19206.0,202.659,196.665,5.994,7.317153116522782,2.8890659994316725
130.0,310.40000000000003,19356.0,202.19,196.381,5.8089999999999975,7.096101768937585,2.8017872555996135
131.0,312.90000000000003,19506.0,201.945,196.483,5.461999999999989,6.67668557775775,2.636187187068504
132.0,315.40000000000003,19656.0,202.301,196.152,6.149000000000001,7.521461740291157,2.969734134828078
133.0,317.90000000000003,19806.0,202.744,196.744,6.0,7.344045145862628,2.8996839059294923
134.0,320.40000000000003,19956.0,201.362,196.127,5.234999999999985,6.4118735079721745,2.5316301913526345
135.0,322.90000000000003,20106.0,200.763,194.991,5.771999999999991,7.074188672400257,2.7931352045710103
136.0,325.40000000000003,20256.0,200.25,194.427,5.8230000000000075,7.141296840737927,2.8196318384860093
137.0,327.90000000000003,20406.0,199.682,193.929,5.752999999999986,7.059966038030325,2.787519614911183
138.0,330.40000000000003,20556.0,199.632,193.683,5.949000000000012,7.305133390008666,2.884320194247415
139.0,332.90000000000003,20706.0,199.724,193.734,5.989999999999981,7.360121553740313,2.9060314297072214
140.0,335.40000000000003,20856.0,199.392,193.528,5.864000000000004,7.2098160681601176,2.846685607499777
141.0,337.90000000000003,21006.0,200.241,194.324,5.917000000000002,7.279506955467327,2.874201988499764
142.0,340.40000000000003,21156.0,201.669,195.744,5.925000000000011,7.29385409804312,2.8798667383204455
143.0,342.90000000000003,21306.0,202.463,196.839,5.623999999999995,6.92756379490274,2.7352426141737474
144.0,345.40000000000003,21456.0,201.824,196.095,5.729000000000013,7.061204140584761,2.7880084607692464
145.0,347.90000000000003,21606.0,201.475,195.396,6.079000000000008,7.49713038141806,2.9601272699011294
146.0,350.40000000000003,21756.0,201.176,195.398,5.777999999999992,7.13020010923753,2.815250463766622
147.0,352.90000000000003,21906.0,200.878,195.032,5.845999999999975,7.218427032259689,2.850085514978305
148.0,355.40000000000003,22056.0,201.142,194.855,6.287000000000006,7.76756951842367,3.0669060270483963
149.0,357.90000000000003,22206.0,201.148,195.245,5.902999999999992,7.297444182602989,2.8812842283021136
150.0,360.40000000000003,22356.0,200.755,194.609,6.145999999999987,7.602304782448571,3.0016537736094784
151.0,362.90000000000003,22506.0,199.401,193.976,5.425000000000011,6.714375543050169,2.651068493433435
152.0,365.40000000000003,22656.0,199.239,193.419,5.819999999999993,7.207431229628986,2.8457439904795088
153.0,367.90000000000003,22806.0,198.934,193.019,5.914999999999992,7.329298501866646,2.8938614190830285
154.0,370.40000000000003,22956.0,198.566,192.719,5.847000000000008,7.249188994684963,2.8622314053681026
155.0,372.90000000000003,23106.0,198.87,192.626,6.244,7.745803025970305,3.058311860400181
156.0,375.40000000000003,23256.0,199.433,193.106,6.326999999999998,7.853209801926436,3.1007197832059425
157.0,377.90000000000003,23406.0,199.489,193.531,5.957999999999998,7.399362221170192,2.921525007094672
158.0,380.40000000000003,23556.0,199.66,192.973,6.686999999999983,8.309371469938359,3.2808282412784395
159.0,382.90000000000003,23706.0,199.284,193.227,6.056999999999988,7.530713961237764,2.9733872327652677
160.0,385.40000000000003,23856.0,198.97,192.825,6.14500000000001,7.64435563206994,3.0182569084562787
161.0,387.90000000000003,24006.0,199.205,193.137,6.068000000000012,7.5527255026956395,2.9820781532651317
162.0,390.40000000000003,24156.0,198.894,192.716,6.177999999999997,7.69385337555078,3.0378003354506067
163.0,392.90000000000003,24306.0,198.231,192.128,6.103000000000009,7.604593575657043,3.002557468603013
164.0,395.40000000000003,24456.0,198.442,192.392,6.050000000000011,7.542640999052135,2.978096441234013
165.0,397.90000000000003,24606.0,198.132,192.189,5.943000000000012,7.413239452117517,2.9270042194956867
166.0,400.40000000000003,24756.0,197.792,191.875,5.917000000000002,7.384769362852981,2.915763240171471
167.0,402.90000000000003,24906.0,197.759,192.043,5.71599999999998,7.13772007365236,2.8182196067053917
168.0,405.40000000000003,25056.0,198.324,192.583,5.741000000000014,7.172749125699644,2.8320502921715205
169.0,407.90000000000003,25206.0,198.943,193.161,5.782000000000011,7.227795953931808,2.8537846904121404
170.0,410.40000000000003,25356.0,199.351,193.009,6.342000000000013,7.93199910078201,3.131828532854586
171.0,412.90000000000003,25506.0,198.493,192.582,5.911000000000001,7.396818143791846,2.920520517050982
172.0,415.40000000000003,25656.0,198.21,192.15,6.060000000000002,7.587227929890733,2.9957009089625797
173.0,417.90000000000003,25806.0,197.669,191.496,6.173000000000002,7.732720091911042,3.0531462639774314
174.0,420.40000000000003,25956.0,197.288,191.316,5.972000000000008,7.484802047724674,2.955259615891979
175.0,422.90000000000003,26106.0,196.961,191.016,5.945000000000022,7.454798442034577,2.943413151060749
176.0,425.40000000000003,26256.0,197.102,190.668,6.4339999999999975,8.072121108180319,3.18715356444815
177.0,427.90000000000003,26406.0,197.307,191.015,6.292000000000002,7.8979967276612175,3.1184032158605426
178.0,430.40000000000003,26556.0,197.015,190.633,6.381999999999977,8.015040730268375,3.164616250217602
179.0,432.90000000000003,26706.0,196.769,190.276,6.492999999999995,8.158571577090802,3.2212872099229477
180.0,435.40000000000003,26856.0,197.231,190.486,6.7450000000000045,8.479487046323811,3.347995774864574
181.0,437.90000000000003,27006.0,198.194,191.771,6.423000000000002,8.078739017338911,3.189766544665038
182.0,440.40000000000003,27156.0,198.108,192.176,5.932000000000016,7.464899628465753,2.9474014500354326
183.0,442.90000000000003,27306.0,197.705,191.506,6.199000000000012,7.804782434909626,3.0815989779880857
184.0,445.40000000000003,27456.0,197.449,190.875,6.574000000000012,8.28103034554561,3.269638181761458
185.0,447.90000000000003,27606.0,197.608,190.924,6.6839999999999975,8.42375683529642,3.325991553378923
186.0,450.40000000000003,27756.0,197.331,190.809,6.521999999999991,8.223639946697386,3.2469784605056837
187.0,452.90000000000003,27906.0,196.794,190.446,6.348000000000013,8.00817116336035,3.161903906787207
188.0,455.40000000000003,28056.0,196.252,190.059,6.193000000000012,7.816455923047311,3.0862080762447834
189.0,457.90000000000003,28206.0,196.281,189.49,6.790999999999997,8.575395541287332,3.38586377727525
190.0,460.40000000000003,28356.0,195.99,189.467,6.522999999999996,8.240977035215126,3.2538237447532743
191.0,462.90000000000003,28506.0,196.013,189.475,6.538000000000011,8.263925968282026,3.2628847799934824
192.0,465.40000000000003,28656.0,196.016,189.874,6.141999999999996,7.767133780010894,3.0667339824003004
193.0,467.90000000000003,28806.0,196.085,189.677,6.4080000000000155,8.107412252833432,3.201087733171243
194.0,470.40000000000003,28956.0,195.82,189.458,6.361999999999995,8.053070876730798,3.1796318719147743
195.0,472.90000000000003,29106.0,194.97,188.611,6.359000000000009,8.053119055631562,3.1796508946168927
196.0,475.40000000000003,29256.0,194.519,188.221,6.298000000000002,7.979666428599828,3.1506492482187696
197.0,477.90000000000003,29406.0,194.263,187.941,6.322000000000003,8.013877858604785,3.164157108126206
198.0,480.40000000000003,29556.0,194.255,187.363,6.891999999999996,8.740555119026501,3.4510745105930023
199.0,482.90000000000003,29706.0,193.96,187.484,6.475999999999999,8.216852514412206,3.244298546674951
