"Frame","Time (aligned)","Time [ s]","Intensity Ch3-T2","background","Intensity (bg-subst)","bleach-Corrected","Normalized"
1.0,-12.333333333333334,0.0,267.569,260.164,7.40500000000003,7.40500000000003,1.0035202445524072
2.0,-9.333333333333334,180.0,264.561,257.286,7.274999999999977,7.299161179790471,0.9891770441824093
3.0,-6.333333333333333,360.0,262.488,255.085,7.402999999999992,7.45189420435367,1.0098753132115639
4.0,-3.3333333333333335,540.0,260.076,252.833,7.243000000000023,7.314349343571276,0.991235333153593
5.0,-0.3333333333333333,720.0,261.303,253.974,7.329000000000008,7.4247154265512405,1.006192064900027
6.0,3.2166666666666663,933.0,280.727,272.799,7.927999999999997,8.056686950415871,1.091836388759418
7.0,6.216666666666667,1113.0,278.125,270.266,7.8589999999999804,8.011208870400912,1.0856732322464693
8.0,9.216666666666667,1293.0,273.214,265.224,7.990000000000009,8.169508076464343,1.1071258261669588
9.0,12.216666666666667,1473.0,270.789,262.918,7.870999999999981,8.071943645523959,1.0939039650465117
10.0,15.216666666666667,1653.0,270.241,262.981,7.259999999999991,7.467322494509168,1.0119661439353815
11.0,18.21666666666667,1833.0,269.001,261.518,7.483000000000004,7.719077137403526,1.0460837510663132
12.0,21.21666666666667,2013.0,266.292,258.977,7.314999999999998,7.567402886163607,1.0255289662322031
13.0,24.21666666666667,2193.0,266.65,258.944,7.70599999999996,7.99440656696855,1.0833961962370853
14.0,27.21666666666667,2373.0,266.622,259.29,7.331999999999994,7.627574539359997,1.0336833851560063
15.0,30.21666666666667,2553.0,264.037,255.971,8.065999999999974,8.414171128296294,1.1402823860058968
16.0,33.21666666666666,2733.0,263.929,256.353,7.575999999999965,7.92437118588158,1.0739050520432005
17.0,36.21666666666666,2913.0,262.603,255.065,7.538000000000011,7.90561317495228,1.0713629799682394
18.0,39.21666666666666,3093.0,258.479,252.089,6.389999999999986,6.719206473330952,0.9105820017981319
19.0,42.21666666666666,3273.0,258.437,251.576,6.861000000000018,7.2331191860578015,0.9802270809546798
20.0,45.21666666666666,3453.0,260.704,253.037,7.667000000000002,8.103420254011647,1.0981696522642357
21.0,48.21666666666666,3633.0,260.339,252.595,7.744,8.205344384247242,1.1119823366801458
22.0,51.21666666666666,3813.0,259.658,252.477,7.181000000000012,7.627620625939551,1.033689630775937
23.0,54.21666666666666,3993.0,257.742,250.542,7.200000000000017,7.666439366269165,1.0389503183908984
24.0,57.21666666666666,4173.0,258.035,251.272,6.763000000000034,7.218421712015175,0.9782352899019372
25.0,60.21666666666666,4353.0,256.21,248.751,7.458999999999975,7.9801300070766095,1.0814614471656299
26.0,63.21666666666666,4533.0,257.226,249.867,7.359000000000009,7.891503186257248,1.0694508045049211
27.0,66.21666666666667,4713.0,256.55,249.475,7.075000000000017,7.604387894624593,1.0305411478305206
28.0,69.21666666666667,4893.0,256.588,248.905,7.683000000000021,8.276583028427575,1.1216365462182187
29.0,72.21666666666667,5073.0,254.065,246.775,7.289999999999992,7.87074723156262,1.0666379725358366
30.0,75.21666666666667,5253.0,253.52,245.897,7.623000000000019,8.248377796737177,1.117814193618137
31.0,78.21666666666667,5433.0,255.237,247.0,8.236999999999995,8.932069521550096,1.2104676017049316
32.0,81.21666666666667,5613.0,253.949,246.545,7.404000000000025,8.045930532457206,1.0903786867769212
33.0,84.21666666666667,5793.0,250.748,244.09,6.657999999999987,7.25048656441528,0.9825806955092418
34.0,87.21666666666667,5973.0,252.905,245.377,7.527999999999992,8.214919873721353,1.1132800000884873
35.0,90.21666666666667,6153.0,252.456,244.835,7.620999999999981,8.333417151307248,1.1293386654472708
36.0,93.21666666666667,6333.0,251.93,244.087,7.843000000000018,8.593460850229057,1.1645795994562276
37.0,96.21666666666667,6513.0,249.719,241.365,8.353999999999985,9.171546672860686,1.2429213720557641
38.0,99.21666666666667,6693.0,248.928,241.196,7.731999999999999,8.505304666743944,1.1526327372266818
39.0,102.21666666666667,6873.0,250.748,242.353,8.394999999999982,9.252445798930125,1.2538847631127905
40.0,105.21666666666667,7053.0,247.948,240.005,7.943000000000012,8.770943819986398,1.1886319631584252
41.0,108.21666666666667,7233.0,249.462,241.115,8.34699999999998,9.234351285276281,1.2514326077087443
42.0,111.21666666666667,7413.0,249.206,240.671,8.534999999999997,9.459805390487954,1.2819859849940058
43.0,114.21666666666667,7593.0,247.922,239.832,8.090000000000003,8.98294156678934,1.2173617444840492
44.0,117.21666666666667,7773.0,245.176,237.27,7.9059999999999775,8.794418031987478,1.1918131713917808
45.0,120.21666666666667,7953.0,246.962,238.452,8.509999999999991,9.483074216738505,1.2851393594989888
46.0,123.21666666666667,8133.0,243.976,236.518,7.457999999999998,8.32531159323144,1.1282402060789427
47.0,126.21666666666667,8313.0,245.834,238.058,7.7760000000000105,8.695254811208661,1.178374643428707
48.0,129.21666666666667,8493.0,244.4,236.464,7.936000000000007,8.88925279881951,1.204665110406413
49.0,132.21666666666667,8673.0,244.811,237.194,7.617000000000019,8.546235550120599,1.1581796609398332
50.0,135.21666666666667,8853.0,246.874,239.128,7.746000000000009,8.705338081908073,1.1797411209814634
51.0,138.21666666666667,9033.0,245.226,238.164,7.062000000000012,7.949562370549596,1.0773189431706296
52.0,141.21666666666667,9213.0,244.681,237.129,7.552000000000021,8.514813254358323,1.1539213341433772
53.0,144.21666666666667,9393.0,245.45,237.297,8.152999999999992,9.207011223565434,1.2477275023185828
54.0,147.21666666666667,9573.0,243.865,235.416,8.449000000000012,9.556200061053467,1.295049321034445
55.0,150.21666666666667,9753.0,242.783,235.155,7.627999999999986,8.64092170498495,1.1710114601680843
56.0,153.21666666666667,9933.0,244.031,236.167,7.864000000000004,8.921816388166715,1.2090781044840917
57.0,156.21666666666667,10113.0,243.607,235.657,7.949999999999989,9.032924493519609,1.2241353945658595
58.0,159.21666666666667,10293.0,243.523,235.707,7.8160000000000025,8.893823674275588,1.20528455214247
59.0,162.21666666666667,10473.0,242.94,235.12,7.819999999999993,8.91137705830146,1.2076633740506895
60.0,165.21666666666667,10653.0,240.806,232.817,7.989000000000004,9.11708763461301,1.2355411225783306
61.0,168.21666666666667,10833.0,240.741,232.791,7.950000000000017,9.085486005547175,1.2312584926622736
62.0,171.21666666666667,11013.0,240.791,232.895,7.895999999999987,9.036439225875363,1.2246117085527848
63.0,174.21666666666667,11193.0,241.945,234.379,7.5660000000000025,8.670769865849678,1.1750564613416714
64.0,177.21666666666667,11373.0,239.129,231.48,7.649000000000001,8.777871662361559,1.1895708193467496
65.0,180.21666666666667,11553.0,238.367,230.378,7.989000000000004,9.180418548573826,1.2441236822360868
66.0,183.21666666666667,11733.0,239.826,232.241,7.5849999999999795,8.727774716136592,1.182781717425479
67.0,186.21666666666667,11913.0,239.404,232.085,7.318999999999988,8.43276684028981,1.1428024634464586
68.0,189.21666666666667,12093.0,239.821,232.19,7.631,8.803651752474266,1.1930645185141346
69.0,192.21666666666667,12273.0,239.877,232.146,7.731000000000023,8.930441147649393,1.2102469256515818
70.0,195.21666666666667,12453.0,236.776,229.502,7.274000000000001,8.413162641051073,1.1401457165437832
71.0,198.21666666666667,12633.0,238.436,230.769,7.667000000000002,8.878778778713087,1.2032456787766164
72.0,201.21666666666667,12813.0,236.036,228.366,7.6699999999999875,8.893200413612645,1.2052000883081828
73.0,204.21666666666667,12993.0,236.631,228.399,8.232,9.556443614401694,1.2950823272080538
74.0,207.21666666666667,13173.0,236.248,228.619,7.628999999999991,8.867070873777907,1.2016590319671974
75.0,210.21666666666667,13353.0,237.568,230.035,7.5330000000000155,8.76588311607383,1.1879461402241986
76.0,213.21666666666667,13533.0,237.092,229.415,7.677000000000021,8.943922470738384,1.212073904806633
77.0,216.21666666666667,13713.0,236.874,228.892,7.981999999999999,9.310022574226181,1.2616875260602094
78.0,219.21666666666667,13893.0,234.943,226.662,8.281000000000006,9.669815337243097,1.31044638109477
79.0,222.21666666666667,14073.0,234.579,226.836,7.742999999999995,9.051801272777906,1.2266935620388708
80.0,225.21666666666667,14253.0,234.404,226.692,7.711999999999989,9.025623362695775,1.2231459505969409
81.0,228.21666666666667,14433.0,235.864,228.036,7.828000000000003,9.171484198138867,1.2429129055266463
82.0,231.21666666666667,14613.0,235.568,227.699,7.869,9.22956558171856,1.2507840526237208
83.0,234.21666666666667,14793.0,234.967,226.962,8.005000000000024,9.399188379804313,1.273771211545622
84.0,237.21666666666667,14973.0,233.016,224.957,8.058999999999997,9.472660464603733,1.2837280953411234
85.0,240.21666666666667,15153.0,232.741,225.038,7.703000000000003,9.063733023607588,1.2283105442820228
86.0,243.21666666666667,15333.0,232.839,225.064,7.775000000000006,9.157958868054287,1.2410799625753797
87.0,246.21666666666667,15513.0,233.961,226.286,7.675000000000011,9.049457563790137,1.2263759442918665
88.0,249.21666666666667,15693.0,234.074,226.11,7.963999999999999,9.399747145695699,1.2738469350951114
89.0,252.21666666666667,15873.0,233.279,225.296,7.983000000000004,9.431630578487248,1.2781677548482708
90.0,255.21666666666667,16053.0,231.172,223.33,7.8419999999999845,9.274239164953052,1.256838184314809
91.0,258.2166666666667,16233.0,233.095,224.985,8.109999999999985,9.600597588236367,1.301066041809071
92.0,261.2166666666667,16413.0,232.344,224.568,7.775999999999982,9.214141337193826,1.2486937701608583
93.0,264.2166666666667,16593.0,232.052,224.453,7.5989999999999895,9.01304628355505,1.221441513927791
94.0,267.2166666666667,16773.0,230.518,222.33,8.187999999999988,9.720865824137201,1.3173647061579017
95.0,270.2166666666667,16953.0,232.175,223.733,8.442000000000007,10.031824442058088,1.3595055931669018
96.0,273.2166666666667,17133.0,230.014,221.411,8.603000000000009,10.232636454641696,1.3867194918808736
97.0,276.2166666666667,17313.0,231.812,223.241,8.570999999999998,10.20393844075689,1.3828303577941958
98.0,279.2166666666667,17493.0,229.4,221.139,8.260999999999996,9.843814387333797,1.3340266065233863
99.0,282.2166666666667,17673.0,228.731,220.579,8.151999999999987,9.722663357717233,1.3176083066086544
100.0,285.2166666666667,17853.0,230.204,222.422,7.782000000000011,9.289631560209722,1.2589241505878976
101.0,288.2166666666667,18033.0,227.913,220.388,7.525000000000006,8.990750170598597,1.2184199608249378
102.0,291.2166666666667,18213.0,229.969,222.04,7.929000000000002,9.481696666695447,1.2849526749134261
103.0,294.2166666666667,18393.0,227.435,219.836,7.5989999999999895,9.0949103514208,1.2325356731991877
104.0,297.2166666666667,18573.0,229.543,220.931,8.611999999999995,10.316123526775213,1.3980335995168482
105.0,300.2166666666667,18753.0,227.108,219.02,8.087999999999994,9.696621786334596,1.314079171688677
106.0,303.2166666666667,18933.0,228.498,220.426,8.072000000000003,9.685534759513361,1.312576665832228
107.0,306.2166666666667,19113.0,226.448,218.463,7.985000000000014,9.5890793422745,1.29950509744655
108.0,309.2166666666667,19293.0,227.705,219.989,7.716000000000008,9.273639770464344,1.2567569548071937
109.0,312.2166666666667,19473.0,230.116,221.644,8.472000000000008,10.190523565092937,1.3810123835461297
110.0,315.2166666666667,19653.0,225.691,217.468,8.223000000000013,9.89896956281496,1.3415011960152414
111.0,318.2166666666667,19833.0,227.308,219.336,7.97199999999998,9.604456649780028,1.3015890190385155
112.0,321.2166666666667,20013.0,225.702,217.539,8.163000000000011,9.842328253808777,1.3338252067828777
113.0,324.2166666666667,20193.0,226.984,218.853,8.131,9.811407977586187,1.3296349133113692
114.0,327.2166666666667,20373.0,225.093,216.702,8.390999999999991,10.13298190523857,1.3732143794179723
115.0,330.2166666666667,20553.0,224.497,216.747,7.75,9.366089999818556,1.269285743027378
116.0,333.2166666666667,20733.0,223.95,216.219,7.7309999999999945,9.350230976669591,1.2671365396798004
117.0,336.2166666666667,20913.0,224.206,216.04,8.165999999999997,9.8837807737734,1.3394428223091726
118.0,339.2166666666667,21093.0,225.237,217.649,7.587999999999994,9.191051283557693,1.2455646227912889
119.0,342.2166666666667,21273.0,223.303,215.525,7.777999999999992,9.428162857944852,1.2776978118682918
120.0,345.2166666666667,21453.0,224.737,217.003,7.734000000000009,9.381704707872885,1.2714018369700242
121.0,348.2166666666667,21633.0,222.523,215.112,7.411000000000001,8.996427761341657,1.2191893838162873
122.0,351.2166666666667,21813.0,222.635,214.512,8.12299999999999,9.867854079340722,1.3372844481981674
123.0,354.2166666666667,21993.0,224.03,216.161,7.869,9.566126794267138,1.2963945847403449
124.0,357.2166666666667,22173.0,223.812,216.168,7.6440000000000055,9.299186942755158,1.2602190891198068
125.0,360.2166666666667,22353.0,221.879,214.169,7.7099999999999795,9.386070891605259,1.271993539031722
126.0,363.2166666666667,22533.0,222.21,214.337,7.873000000000019,9.591186655847945,1.299790679057971
127.0,366.2166666666667,22713.0,223.456,215.647,7.8089999999999975,9.519797025830878,1.2901160080285
128.0,369.2166666666667,22893.0,223.318,215.495,7.8230000000000075,9.543404940587713,1.293315335562619
129.0,372.2166666666667,23073.0,220.752,213.151,7.600999999999999,9.278892365480424,1.2574687826849886
130.0,375.2166666666667,23253.0,222.467,215.065,7.402000000000015,9.042063228382878,1.2253738693052096
131.0,378.2166666666667,23433.0,222.718,215.057,7.661000000000001,9.36471772449693,1.269099773268249
132.0,381.2166666666667,23613.0,222.609,214.915,7.694000000000017,9.411306981590547,1.2754135156952713
133.0,384.2166666666667,23793.0,222.287,214.762,7.525000000000006,9.210656620436053,1.2482215238660632
134.0,387.2166666666667,23973.0,221.937,213.878,8.059000000000026,9.870733257067442,1.3376746322814124
135.0,390.2166666666667,24153.0,220.217,212.196,8.021000000000015,9.830572997457146,1.332232142943747
136.0,393.2166666666667,24333.0,219.98,212.077,7.902999999999992,9.692197996282278,1.3134796628601624
137.0,396.2166666666667,24513.0,220.584,211.989,8.594999999999999,10.54761135005576,1.4294046619110952
138.0,399.2166666666667,24693.0,220.13,212.421,7.709000000000003,9.466342797709988,1.282871929692749
139.0,402.2166666666667,24873.0,221.906,214.386,7.52000000000001,9.240085823727446,1.2522097482123105
140.0,405.2166666666667,25053.0,222.197,214.351,7.846000000000004,9.646694555045066,1.3073130694127157
141.0,408.2166666666667,25233.0,219.727,212.008,7.718999999999994,9.49645330222279,1.2869524834877906
142.0,411.2166666666667,25413.0,220.784,213.195,7.588999999999999,9.342288396632764,1.2660601669774463
143.0,414.2166666666667,25593.0,220.118,212.92,7.1980000000000075,8.866394771641183,1.2015674070945992
144.0,417.2166666666667,25773.0,221.057,212.776,8.280999999999977,10.206638416509357,1.3831962565554925
145.0,420.2166666666667,25953.0,220.909,212.877,8.031999999999982,9.905733052072652,1.34241777918795
146.0,423.2166666666667,26133.0,218.516,211.153,7.3629999999999995,9.086130738026307,1.231345866341562
147.0,426.2166666666667,26313.0,218.302,210.822,7.47999999999999,9.236030482603939,1.2516601713161586
148.0,429.2166666666667,26493.0,218.007,210.711,7.295999999999992,9.014185972072369,1.2215959636914118
149.0,432.2166666666667,26673.0,219.792,212.735,7.056999999999988,8.724049398039858,1.182276865011236
150.0,435.2166666666667,26853.0,219.961,212.724,7.237000000000023,8.951819022222683,1.2131440397528372
151.0,438.2166666666667,27033.0,219.266,212.253,7.013000000000005,8.679800125974335,1.1762802356628959
152.0,441.2166666666667,27213.0,217.164,209.715,7.448999999999984,9.224768939777709,1.2501340151769262
153.0,444.2166666666667,27393.0,218.823,211.142,7.681000000000012,9.517555670809445,1.2898122612169893
154.0,447.2166666666667,27573.0,218.866,211.455,7.411000000000001,9.188257164291121,1.2451859657690474
155.0,450.2166666666667,27753.0,219.503,211.961,7.541999999999973,9.355997184796257,1.2679179720348865
156.0,453.2166666666667,27933.0,217.942,209.614,8.328000000000003,10.336894457158749,1.400848460980463
157.0,456.2166666666667,28113.0,216.633,209.495,7.138000000000005,8.864828387833649,1.2013551318938431
158.0,459.2166666666667,28293.0,218.048,210.873,7.175000000000011,8.915767952266782,1.2082584248252854
159.0,462.2166666666667,28473.0,216.492,209.371,7.120999999999981,8.853593217430094,1.1998325497262585
160.0,465.2166666666667,28653.0,219.33,211.763,7.567000000000007,9.41331799314454,1.2756860465266637
161.0,468.2166666666667,28833.0,219.152,212.014,7.137999999999977,8.884534383362094,1.2040256741560786
162.0,471.2166666666667,29013.0,217.413,209.861,7.552000000000021,9.404982306921282,1.2745564003582268
163.0,474.2166666666667,29193.0,216.92,209.427,7.492999999999995,9.336591784761282,1.2652881662565294
164.0,477.2166666666667,29373.0,218.318,210.834,7.484000000000009,9.33043392345556,1.2644536573458693
165.0,480.2166666666667,29553.0,216.529,209.146,7.38300000000001,9.209481217395858,1.2480622340961316
166.0,483.2166666666667,29733.0,216.171,209.127,7.043999999999983,8.791332667219242,1.1913950449897885
167.0,486.2166666666667,29913.0,217.294,210.546,6.748000000000019,8.426405713262147,1.141940408112167
168.0,489.2166666666667,30093.0,217.56,209.994,7.5660000000000025,9.4528862367259,1.281048306280246
169.0,492.2166666666667,30273.0,215.057,208.157,6.899999999999977,8.625353179199104,1.168901624813063
170.0,495.2166666666667,30453.0,216.74,209.609,7.131,8.918808828078902,1.2086705221161202
171.0,498.2166666666667,30633.0,214.93,207.765,7.1650000000000205,8.96602977504123,1.2150698706972995
172.0,501.2166666666667,30813.0,215.587,208.207,7.3799999999999955,9.239891439371874,1.2521834053850263
173.0,504.2166666666667,30993.0,214.969,208.051,6.918000000000006,8.665957815622974,1.1744043357751217
174.0,507.2166666666667,31173.0,213.834,207.106,6.728000000000009,8.432308803933624,1.1427403906907296
175.0,510.2166666666667,31353.0,215.826,208.679,7.146999999999991,8.962059624090978,1.2145318387118158
176.0,513.2166666666666,31533.0,213.908,206.422,7.48599999999999,9.391964348125242,1.2727922159970417
177.0,516.2166666666666,31713.0,215.712,208.424,7.2879999999999825,9.148219985886014,1.2397601563072942
178.0,519.2166666666666,31893.0,215.91,208.685,7.224999999999994,9.07374949485885,1.2296679692218768
179.0,522.2166666666666,32073.0,213.937,207.095,6.842000000000013,8.597096370006996,1.1650722824672515
180.0,525.2166666666666,32253.0,213.504,206.58,6.923999999999978,8.704517169569437,1.1796298715350322
181.0,528.2166666666666,32433.0,215.178,208.052,7.126000000000005,8.962960335911118,1.214653902526268
182.0,531.2166666666666,32613.0,214.624,207.614,7.009999999999991,8.82146769985582,1.195478922818425
183.0,534.2166666666666,32793.0,213.326,206.226,7.099999999999994,8.939176526513661,1.2114307378776623
184.0,537.2166666666666,32973.0,212.953,206.448,6.5049999999999955,8.194113537842114,1.110460340497701
185.0,540.2166666666666,33153.0,212.725,205.842,6.882999999999981,8.674553904450198,1.1755692715161197
186.0,543.2166666666666,33333.0,211.958,205.372,6.585999999999984,8.304338038783952,1.1253978851487232
187.0,546.2166666666666,33513.0,211.663,205.262,6.4010000000000105,8.075032075719845,1.0943225068730422
188.0,549.2166666666666,33693.0,211.896,205.28,6.6159999999999854,8.350342707392345,1.1316324045670145
189.0,552.2166666666666,33873.0,211.998,205.485,6.512999999999977,8.224348573170994,1.1145577706188743
190.0,555.2166666666666,34053.0,213.166,206.934,6.231999999999999,7.8733357172253084,1.0669887622407983
191.0,558.2166666666666,34233.0,211.721,204.868,6.853000000000009,8.662080859687473,1.1738789335106363
192.0,561.2166666666666,34413.0,211.541,204.576,6.965000000000003,8.807894297912071,1.1936394652035704
193.0,564.2166666666666,34593.0,211.412,204.969,6.443000000000012,8.15169431101838,1.1047117175570018
194.0,567.2166666666666,34773.0,211.225,204.494,6.7309999999999945,8.520154050813424,1.1546451150163992
195.0,570.2166666666666,34953.0,210.931,204.613,6.318000000000012,8.001196130441931,1.0843163129686466
