"Frame","Time (aligned)","Time [ s]","Intensity Ch3-T2","background","Intensity (bg-subst)","bleach-Corrected","Normalized"
1.0,-12.333333333333334,0.0,265.2,256.771,8.428999999999974,8.428999999999974,1.0288130320373488
2.0,-9.333333333333334,180.0,260.447,252.142,8.305000000000007,8.332581937891423,1.017044594640141
3.0,-6.333333333333333,360.0,259.722,251.706,8.015999999999991,8.06894285318101,0.9848657684324684
4.0,-3.3333333333333335,540.0,257.065,249.225,7.840000000000003,7.917230271102946,0.9663482833730369
5.0,-0.3333333333333333,720.0,254.517,246.406,8.11099999999999,8.21692820640701,1.002928321517005
6.0,3.2166666666666663,933.0,277.967,269.647,8.319999999999993,8.45504987732846,1.0319925851609126
7.0,6.216666666666667,1113.0,272.722,264.371,8.350999999999999,8.512737660862472,1.0390337458548433
8.0,9.216666666666667,1293.0,270.514,262.367,8.146999999999991,8.330035331533773,1.0167337651457502
9.0,12.216666666666667,1473.0,270.45,262.345,8.104999999999961,8.311917576797297,1.0145223780079946
10.0,15.216666666666667,1653.0,269.46,261.019,8.440999999999974,8.682048095888675,1.0596991607338173
11.0,18.21666666666667,1833.0,264.722,256.784,7.937999999999988,8.18843168738595,0.999450140221885
12.0,21.21666666666667,2013.0,265.043,256.828,8.215000000000032,8.498457239895323,1.0372907296970568
13.0,24.21666666666667,2193.0,264.638,257.129,7.508999999999958,7.790033598672049,0.9508231209304348
14.0,27.21666666666667,2373.0,262.948,255.484,7.46399999999997,7.76489584857922,0.9477548987342549
15.0,30.21666666666667,2553.0,261.527,254.196,7.330999999999989,7.647444649335512,0.9334192332448322
16.0,33.21666666666666,2733.0,261.588,253.793,7.795000000000016,8.153441577870556,0.9951793749280362
17.0,36.21666666666666,2913.0,260.875,253.117,7.75800000000001,8.136342134688217,0.9930922791887347
18.0,39.21666666666666,3093.0,260.293,252.865,7.427999999999997,7.8106832056185285,0.9533435367250708
19.0,42.21666666666666,3273.0,260.197,252.533,7.664000000000016,8.079671395124175,0.9861752551765528
20.0,45.21666666666666,3453.0,259.028,251.629,7.399000000000029,7.820165183178871,0.954500872361987
21.0,48.21666666666666,3633.0,258.709,251.47,7.239000000000004,7.67025929720633,0.9362039060471625
22.0,51.21666666666666,3813.0,256.288,248.713,7.575000000000017,8.0461253643632,0.9820807488744983
23.0,54.21666666666666,3993.0,257.521,250.677,6.8440000000000225,7.2873765309369745,0.8894706304889202
24.0,57.21666666666666,4173.0,257.588,249.612,7.9760000000000275,8.513105363748773,1.0390786263295548
25.0,60.21666666666666,4353.0,256.102,248.451,7.650999999999982,8.185544266542863,0.9990977121530341
26.0,63.21666666666666,4533.0,252.798,245.656,7.141999999999996,7.658800890915772,0.9348053347198276
27.0,66.21666666666667,4713.0,253.783,246.611,7.171999999999997,7.708645933603877,0.9408892390382498
28.0,69.21666666666667,4893.0,251.481,244.678,6.802999999999997,7.328594864296839,0.8945015900949812
29.0,72.21666666666667,5073.0,253.86,246.778,7.082000000000022,7.646177214530414,0.9332645347699547
30.0,75.21666666666667,5253.0,254.026,246.94,7.086000000000013,7.667323241201573,0.9358455417476624
31.0,78.21666666666667,5433.0,253.146,245.79,7.3559999999999945,7.97672737653545,0.9736102833062983
32.0,81.21666666666667,5613.0,249.724,242.953,6.770999999999987,7.358049113353248,0.8980966684290786
33.0,84.21666666666667,5793.0,251.471,244.705,6.765999999999991,7.368097340768071,0.8993231184603095
34.0,87.21666666666667,5973.0,251.226,244.149,7.076999999999998,7.722766730383377,0.9426127720492239
35.0,90.21666666666667,6153.0,248.887,241.964,6.923000000000002,7.570167555242127,0.9239870726704758
36.0,93.21666666666667,6333.0,247.598,241.638,5.960000000000008,6.530285180079706,0.7970628183872804
37.0,96.21666666666667,6513.0,248.834,242.752,6.081999999999994,6.677202162357999,0.8149949700061568
38.0,99.21666666666667,6693.0,248.466,242.082,6.3840000000000146,7.022486419101587,0.8571391084680305
39.0,102.21666666666667,6873.0,245.782,239.894,5.888000000000005,6.489386642537313,0.7920708918936414
40.0,105.21666666666667,7053.0,246.849,241.949,4.899999999999977,5.41075471710098,0.660417008673753
41.0,108.21666666666667,7233.0,243.501,239.706,3.795000000000016,4.198438136770543,0.5124460635083821
42.0,111.21666666666667,7413.0,241.734,239.236,2.498000000000019,2.768669462851681,0.33793370800636663
43.0,114.21666666666667,7593.0,239.534,238.5,1.0339999999999918,1.1481287490803584,0.1401364123277513
44.0,117.21666666666667,7773.0,238.825,237.773,1.0519999999999925,1.1702160093158092,0.14283230284527793
45.0,120.21666666666667,7953.0,240.274,239.146,1.1280000000000143,1.256980930256308,0.15342251299918416
46.0,123.21666666666667,8133.0,237.973,237.187,0.7860000000000014,0.8774061292947071,0.10709299563505094
47.0,126.21666666666667,8313.0,237.821,236.924,0.8969999999999914,1.00304058200284,0.12242747922966568
48.0,129.21666666666667,8493.0,239.347,238.392,0.9550000000000125,1.06971225086602,0.1305651802373912
49.0,132.21666666666667,8673.0,238.584,238.54,0.04400000000001114,0.04936777789226739,0.00602565111618106
50.0,135.21666666666667,8853.0,236.105,235.702,0.4029999999999916,0.4529113409513137,0.05528070826055569
51.0,138.21666666666667,9033.0,236.932,236.029,0.9029999999999916,1.0164903455970271,0.12406910837470318
52.0,141.21666666666667,9213.0,236.564,235.898,0.6659999999999968,0.7509091137980138,0.09165323076889495
53.0,144.21666666666667,9393.0,236.709,235.829,0.8799999999999955,0.9937654699788482,0.12129539284647797
54.0,147.21666666666667,9573.0,234.903,233.502,1.400999999999982,1.5845941869494278,0.19340979357268992
55.0,150.21666666666667,9753.0,234.982,234.696,0.28600000000000136,0.32397792443965806,0.03954356516264476
56.0,153.21666666666667,9933.0,232.362,231.855,0.507000000000005,0.5751984878942735,0.07020663190815134
57.0,156.21666666666667,10113.0,233.825,233.331,0.4939999999999998,0.5612911572073825,0.06850915379075587
58.0,159.21666666666667,10293.0,231.226,230.851,0.375,0.42671236922381584,0.052082957217818956
59.0,162.21666666666667,10473.0,233.309,232.539,0.7700000000000102,0.8774629584261152,0.10709993199179457
60.0,165.21666666666667,10653.0,231.042,230.063,0.9790000000000134,1.1172398040163043,0.13636622022574812
61.0,168.21666666666667,10833.0,230.291,229.62,0.6709999999999923,0.7668378754367384,0.09359743738393073
62.0,171.21666666666667,11013.0,229.149,228.344,0.8050000000000068,0.9212681834890756,0.11244663817474662
63.0,174.21666666666667,11193.0,230.84,229.798,1.0420000000000016,1.1941504361902426,0.14575365179328625
64.0,177.21666666666667,11373.0,230.967,230.37,0.5970000000000084,0.6851077764975714,0.08362175926098409
65.0,180.21666666666667,11553.0,229.84,228.742,1.0980000000000132,1.2617473483958164,0.1540042846326004
66.0,183.21666666666667,11733.0,229.841,228.65,1.1910000000000025,1.3704389831138737,0.16727078958827496
67.0,186.21666666666667,11913.0,227.289,226.673,0.6159999999999854,0.7097396329578369,0.08662823392341078
68.0,189.21666666666667,12093.0,227.825,226.576,1.2489999999999952,1.4409331724335366,0.17587505351697083
69.0,192.21666666666667,12273.0,229.848,228.913,0.9350000000000023,1.0800624075866225,0.13182848265971708
70.0,195.21666666666667,12453.0,230.098,228.931,1.1670000000000016,1.3497609021317865,0.16474689835658735
71.0,198.21666666666667,12633.0,227.434,226.567,0.8669999999999902,1.0040304162180982,0.12254829478788302
72.0,201.21666666666667,12813.0,226.189,225.558,0.6310000000000002,0.731630959711811,0.089300209514
73.0,204.21666666666667,12993.0,228.005,226.873,1.132000000000005,1.3141270859454284,0.16039756457158927
74.0,207.21666666666667,13173.0,227.559,226.757,0.8019999999999925,0.932152423747519,0.11377512888796436
75.0,210.21666666666667,13353.0,225.889,225.056,0.8329999999999984,0.969332355726732,0.11831317593393383
76.0,213.21666666666667,13533.0,227.195,226.42,0.7750000000000057,0.9028969538650878,0.11020431281566379
77.0,216.21666666666667,13713.0,225.469,224.245,1.2239999999999895,1.4276456565839075,0.17425322774054408
78.0,219.21666666666667,13893.0,226.283,225.931,0.35199999999997544,0.4110342952190955,0.05016934862210152
79.0,222.21666666666667,14073.0,226.236,225.728,0.5079999999999814,0.5938673700853687,0.07248528765518761
80.0,225.21666666666667,14253.0,224.366,223.675,0.6910000000000025,0.8087014709054475,0.09870715533222206
81.0,228.21666666666667,14433.0,223.865,223.119,0.7460000000000093,0.8740326024286762,0.1066812352359881
82.0,231.21666666666667,14613.0,225.384,224.567,0.8169999999999789,0.9582609073915198,0.1169618352848895
83.0,234.21666666666667,14793.0,225.89,224.746,1.143999999999977,1.3432444105553887,0.16395151913521355
84.0,237.21666666666667,14973.0,224.912,223.197,1.7150000000000034,2.0158348054095345,0.24604545239527922
85.0,240.21666666666667,15153.0,225.863,225.164,0.6990000000000123,0.8224781751917191,0.1003886896670472
86.0,243.21666666666667,15333.0,223.181,222.513,0.6680000000000064,0.786818845512581,0.09603624179806942
87.0,246.21666666666667,15513.0,222.463,221.546,0.9170000000000016,1.0812185779798773,0.13196960060583598
88.0,249.21666666666667,15693.0,223.541,222.593,0.9480000000000075,1.1189051097588643,0.13656948137775574
89.0,252.21666666666667,15873.0,221.986,221.102,0.8839999999999861,1.0444145598625318,0.1274774362363421
90.0,255.21666666666667,16053.0,221.853,221.024,0.8290000000000077,0.9804060530153235,0.11966479108203437
91.0,258.2166666666667,16233.0,223.335,222.511,0.8240000000000123,0.9754491261044265,0.1190597666420311
92.0,261.2166666666667,16413.0,222.57,222.095,0.4749999999999943,0.5628494258188047,0.06869935038048726
93.0,264.2166666666667,16593.0,222.865,221.742,1.1230000000000189,1.3319714405096073,0.16257558148034743
94.0,267.2166666666667,16773.0,220.603,219.567,1.0360000000000014,1.2299483382762784,0.15012301330541233
95.0,270.2166666666667,16953.0,222.292,221.431,0.86099999999999,1.023146273941235,0.12488150673996927
96.0,273.2166666666667,17133.0,222.503,221.27,1.2329999999999757,1.4665629139338545,0.17900332639195904
97.0,276.2166666666667,17313.0,220.313,219.148,1.164999999999992,1.386954647471905,0.16928663141106504
98.0,279.2166666666667,17493.0,221.713,220.88,0.8329999999999984,0.9926034844024987,0.121153565120296
99.0,282.2166666666667,17673.0,219.216,218.315,0.9010000000000105,1.074597606146141,0.1311614689048869
100.0,285.2166666666667,17853.0,219.119,217.907,1.211999999999989,1.4468046069100573,0.17659169941876202
101.0,288.2166666666667,18033.0,220.334,2.354926e6,-2.354705666e6,-2.8133648329965407e6,-343389.062055099
102.0,291.2166666666667,18213.0,219.964,2.35098e6,-2.350760036e6,-2.811097691706654e6,-343112.34304875124
103.0,294.2166666666667,18393.0,221.635,2.36883e6,-2.368608365e6,-2.8348836343335216e6,-346015.5685504494
104.0,297.2166666666667,18573.0,221.339,2.365668e6,-2.365446661e6,-2.833516018447978e6,-345848.6423378656
105.0,300.2166666666667,18753.0,221.173,2.363893e6,-2.363671827e6,-2.833782360711364e6,-345881.1511042144
106.0,303.2166666666667,18933.0,221.102,2.363137e6,-2.362915898e6,-2.8352457958233054e6,-346059.77266249014
107.0,306.2166666666667,19113.0,221.241,2.36462e6,-2.364398759e6,-2.839374739740304e6,-346563.73651470983
108.0,309.2166666666667,19293.0,218.931,2.339934e6,-2.339715069e6,-2.8120366401546276e6,-343226.9476755974
109.0,312.2166666666667,19473.0,220.751,2.359392e6,-2.359171249e6,-2.8377231122549823e6,-346362.144880949
110.0,315.2166666666667,19653.0,217.907,2.32899e6,-2.328772093e6,-2.803410442337328e6,-342174.0653963982
111.0,318.2166666666667,19833.0,220.254,2.354078e6,-2.353857746e6,-2.835866116558703e6,-346135.48675154225
112.0,321.2166666666667,20013.0,217.927,2.329199e6,-2.328981073e6,-2.8081093001805404e6,-342747.5908661796
113.0,324.2166666666667,20193.0,217.402,2.323589e6,-2.323371598e6,-2.8035354361719796e6,-342189.32168848667
114.0,327.2166666666667,20373.0,219.507,2.346093e6,-2.345873493e6,-2.832879711184343e6,-345770.97699141793
115.0,330.2166666666667,20553.0,217.081,2.320157e6,-2.319939919e6,-2.803711751680745e6,-342210.84211714583
116.0,333.2166666666667,20733.0,219.163,2.342419e6,-2.342199837e6,-2.8327654209633786e6,-345757.0271434214
117.0,336.2166666666667,20913.0,217.775,2.327584e6,-2.327366225e6,-2.8169455728856954e6,-343826.1141208598
118.0,339.2166666666667,21093.0,217.794,2.327787e6,-2.327569206e6,-2.819294667682614e6,-344112.8360737085
119.0,342.2166666666667,21273.0,217.119,2.320572e6,-2.320354881e6,-2.8126361154918065e6,-343300.1174512854
120.0,345.2166666666667,21453.0,218.443,2.334723e6,-2.334504557e6,-2.8318635108556477e6,-345646.94328144967
121.0,348.2166666666667,21633.0,218.221,2.332341e6,-2.332122779e6,-2.8310314548445353e6,-345545.3855560235
122.0,351.2166666666667,21813.0,215.908,2.307629e6,-2.307413092e6,-2.8030549910890576e6,-342130.68031199026
123.0,354.2166666666667,21993.0,216.398,2.312857e6,-2.312640602e6,-2.8114135504260114e6,-343150.89561332087
124.0,357.2166666666667,22173.0,215.954,2.308116e6,-2.307900046e6,-2.8076391906001065e6,-342690.2110034633
125.0,360.2166666666667,22353.0,215.435,2.302565e6,-2.302349565e6,-2.8028555427168077e6,-342106.33637029026
126.0,363.2166666666667,22533.0,215.339,2.301547e6,-2.301331661e6,-2.80356935318983e6,-342193.46147612133
127.0,366.2166666666667,22713.0,215.275,2.300863e6,-2.300647725e6,-2.8046740133102294e6,-342328.29226599424
128.0,369.2166666666667,22893.0,215.706,2.305471e6,-2.305255294e6,-2.812218427978469e6,-343249.13603509835
129.0,372.2166666666667,23073.0,215.672,2.305107e6,-2.304891328e6,-2.8136874814683907e6,-343428.4433521219
130.0,375.2166666666667,23253.0,217.318,2.322692e6,-2.322474682e6,-2.8370660525482805e6,-346281.94656690443
131.0,378.2166666666667,23433.0,216.46,2.313527e6,-2.31331054e6,-2.8277640276991986e6,-345146.5753023332
132.0,381.2166666666667,23613.0,214.241,2.28981e6,-2.289595759e6,-2.8006353719387525e6,-341835.35041349684
133.0,384.2166666666667,23793.0,214.532,2.292917e6,-2.292702468e6,-2.8062850718371114e6,-342524.932200486
134.0,387.2166666666667,23973.0,214.258,2.289991e6,-2.289776742e6,-2.804538458682078e6,-342311.7469619255
135.0,390.2166666666667,24153.0,216.478,2.313716e6,-2.313499522e6,-2.835435223862757e6,-346082.8935588742
136.0,393.2166666666667,24333.0,215.868,2.307195e6,-2.306979132e6,-2.8292671796324756e6,-345330.0445511276
137.0,396.2166666666667,24513.0,215.355,2.301715e6,-2.301499645e6,-2.824354133537092e6,-344730.37604360224
138.0,399.2166666666667,24693.0,213.174,2.278407e6,-2.278193826e6,-2.7975306416581203e6,-341456.3983463862
139.0,402.2166666666667,24873.0,214.841,2.296221e6,-2.296006159e6,-2.821182707575369e6,-344343.28334463894
140.0,405.2166666666667,25053.0,215.616,2.304507e6,-2.304291384e6,-2.83313728616748e6,-345802.4156554799
141.0,408.2166666666667,25233.0,215.944,2.308008e6,-2.307792056e6,-2.839207085249998e6,-346543.2732184106
142.0,411.2166666666667,25413.0,213.913,2.286304e6,-2.286090087e6,-2.8142459999258514e6,-343496.61408028286
143.0,414.2166666666667,25593.0,213.891,2.286063e6,-2.285849109e6,-2.8156766586271515e6,-343671.23506928456
144.0,417.2166666666667,25773.0,214.078,2.288068e6,-2.287853922e6,-2.819864476711371e6,-344182.38488786883
145.0,420.2166666666667,25953.0,216.171,2.310439e6,-2.310222829e6,-2.8491596905973773e6,-347758.0519684531
146.0,423.2166666666667,26133.0,215.757,2.306006e6,-2.305790243e6,-2.8454042648870633e6,-347299.6783877651
147.0,426.2166666666667,26313.0,213.751,2.284569e6,-2.284355249e6,-2.820638330596302e6,-344276.8386738114
148.0,429.2166666666667,26493.0,215.871,2.307225e6,-2.307009129e6,-2.850302813606732e6,-347897.57739842654
149.0,432.2166666666667,26673.0,214.819,2.295989e6,-2.295774181e6,-2.8380965511957672e6,-346407.7254775737
150.0,435.2166666666667,26853.0,214.759,2.295343e6,-2.295128241e6,-2.8389626428387756e6,-346513.4374682328
151.0,438.2166666666667,27033.0,214.593,2.293569e6,-2.293354407e6,-2.83842262523633e6,-346447.5248870339
152.0,441.2166666666667,27213.0,212.432,2.270468e6,-2.270255568e6,-2.8114623505227338e6,-343156.85197534156
153.0,444.2166666666667,27393.0,213.464,2.281501e6,-2.281287536e6,-2.8267518715015845e6,-345023.03520427144
154.0,447.2166666666667,27573.0,211.602,2.261602e6,-2.261390398e6,-2.803702135431473e6,-342209.668392793
155.0,450.2166666666667,27753.0,211.395,2.259389e6,-2.259177605e6,-2.802553608105917e6,-342069.4833316727
156.0,453.2166666666667,27933.0,210.963,2.254768e6,-2.254557037e6,-2.798405155993461e6,-341563.13838018646
157.0,456.2166666666667,28113.0,210.84,2.253456e6,-2.25324516e6,-2.7983513111679405e6,-341556.5662769472
158.0,459.2166666666667,28293.0,210.987,2.25503e6,-2.254819013e6,-2.8018736019884576e6,-341986.4842623279
159.0,462.2166666666667,28473.0,212.968,2.276205e6,-2.275992032e6,-2.8297581263081296e6,-345389.9677137742
160.0,465.2166666666667,28653.0,210.638,2.251297e6,-2.251086362e6,-2.8003425076697324e6,-341799.6044677635
161.0,468.2166666666667,28833.0,212.35,2.269597e6,-2.26938465e6,-2.824660402353491e6,-344767.7580995541
162.0,471.2166666666667,29013.0,211.919,2.264994e6,-2.264782081e6,-2.8204760859159557e6,-344257.0356792071
163.0,474.2166666666667,29193.0,211.623,2.261823e6,-2.261611377e6,-2.8180624853624534e6,-343962.4403887129
164.0,477.2166666666667,29373.0,209.744,2.241744e6,-2.241534256e6,-2.7945600297661806e6,-341093.81628118834
165.0,480.2166666666667,29553.0,209.912,2.243542e6,-2.243332088e6,-2.798310270732413e6,-341551.5570309025
166.0,483.2166666666667,29733.0,209.13,2.235184e6,-2.23497487e6,-2.7893821103130504e6,-340461.8182965852
167.0,486.2166666666667,29913.0,209.097,2.234826e6,-2.234616903e6,-2.7904251094237273e6,-340589.1229682506
168.0,489.2166666666667,30093.0,208.973,2.233508e6,-2.233299027e6,-2.790261913140581e6,-340569.2038244754
169.0,492.2166666666667,30273.0,208.553,2.229011e6,-2.228802447e6,-2.7861171408751095e6,-340063.30802170595
170.0,495.2166666666667,30453.0,210.037,2.244876e6,-2.244665963e6,-2.8074248502163272e6,-342664.0493970896
171.0,498.2166666666667,30633.0,207.614,2.21898e6,-2.218772386e6,-2.7764939674689765e6,-338888.7385342478
172.0,501.2166666666667,30813.0,207.498,2.217739e6,-2.217531502e6,-2.7763889352123663e6,-338875.9186796523
173.0,504.2166666666667,30993.0,207.92,2.222244e6,-2.22203608e6,-2.7834736822885545e6,-339740.6570971006
174.0,507.2166666666667,31173.0,209.834,2.242707e6,-2.242497166e6,-2.810557163445003e6,-343046.3681383501
175.0,510.2166666666667,31353.0,209.006,2.23386e6,-2.233650994e6,-2.800911345688835e6,-341869.034764023
176.0,513.2166666666666,31533.0,206.976,2.212155e6,-2.211948024e6,-2.7751184853478638e6,-338720.85219760815
177.0,516.2166666666666,31713.0,206.602,2.208159e6,-2.207952398e6,-2.7715195191093027e6,-338281.5754900398
178.0,519.2166666666666,31893.0,208.648,2.230032e6,-2.229823352e6,-2.8003956420532153e6,-341806.08985703584
179.0,522.2166666666666,32073.0,209.291,2.236905e6,-2.236695709e6,-2.8104484888415793e6,-343033.10371217213
180.0,525.2166666666666,32253.0,207.404,2.216736e6,-2.216528596e6,-2.7865123080190206e6,-340111.5406836455
181.0,528.2166666666666,32433.0,207.399,2.21668e6,-2.216472601e6,-2.787841146280765e6,-340273.7338407404
182.0,531.2166666666666,32613.0,209.081,2.234662e6,-2.234452919e6,-2.81186223278275e6,-343205.66014717513
183.0,534.2166666666666,32793.0,206.582,2.207949e6,-2.207742418e6,-2.7796336900808634e6,-339271.96163782966
184.0,537.2166666666666,32973.0,208.71,2.230692e6,-2.23048329e6,-2.8096592348223873e6,-342936.77024194645
185.0,540.2166666666666,33153.0,206.845,2.210762e6,-2.210555155e6,-2.7859334375719614e6,-340040.8858657791
186.0,543.2166666666666,33333.0,209.145,2.235337e6,-2.235127855e6,-2.8182898979383726e6,-343990.1975392355
187.0,546.2166666666666,33513.0,209.84,2.242775e6,-2.24256516e6,-2.8290557098721727e6,-345304.23332259734
188.0,549.2166666666666,33693.0,209.568,2.23986e6,-2.239650432e6,-2.8267606789539536e6,-345024.1102098209
189.0,552.2166666666666,33873.0,206.762,2.209873e6,-2.209666238e6,-2.7902756597081963e6,-340570.881680438
