"Frame","Time (aligned)","Time [ s]","Intensity Ch3-T2","background","Intensity (bg-subst)","bleach-Corrected","Normalized"
1.0,-12.333333333333334,0.0,274.813,263.992,10.82099999999997,10.82099999999997,0.9868967957645522
2.0,-9.333333333333334,180.0,268.82,257.938,10.882000000000005,10.918140475392466,0.9957562009862415
3.0,-6.333333333333333,360.0,268.454,258.018,10.436000000000035,10.504926099775126,0.9580702252667513
4.0,-3.3333333333333335,540.0,266.182,254.885,11.297000000000025,11.408284486307418,1.0404583129754434
5.0,-0.3333333333333333,720.0,265.534,254.507,11.026999999999987,11.171010643823216,1.0188184650070113
6.0,3.2166666666666663,933.0,287.545,276.554,10.991000000000042,11.16940543289874,1.018672066567136
7.0,6.216666666666667,1113.0,286.428,275.966,10.461999999999989,10.66462236952977,0.9726348437785718
8.0,9.216666666666667,1293.0,286.733,275.82,10.913000000000011,11.15817792721594,1.0176480956418257
9.0,12.216666666666667,1473.0,282.805,272.061,10.744000000000028,11.01829024615803,1.0048900599516875
10.0,15.216666666666667,1653.0,280.783,269.861,10.922000000000025,11.23389755992141,1.0245538772602987
11.0,18.21666666666667,1833.0,279.54,269.551,9.989000000000033,10.304137581922229,0.9397579117194508
12.0,21.21666666666667,2013.0,276.297,265.967,10.330000000000041,10.686434971164784,0.9746241965796886
13.0,24.21666666666667,2193.0,275.228,266.115,9.113,9.454065279624288,0.8622296212374219
14.0,27.21666666666667,2373.0,273.394,263.581,9.812999999999988,10.208590964912661,0.9310438695631912
15.0,30.21666666666667,2553.0,275.099,264.633,10.466000000000008,10.917767794290771,0.9957222117259972
16.0,33.21666666666666,2733.0,277.124,267.274,9.850000000000023,10.302937721876201,0.9396484820886597
17.0,36.21666666666666,2913.0,274.223,264.313,9.910000000000025,10.393290868105224,0.9478888693449825
18.0,39.21666666666666,3093.0,274.7,265.033,9.666999999999973,10.16503426880912,0.927071411951263
19.0,42.21666666666666,3273.0,271.659,261.786,9.87299999999999,10.408480647711473,0.9492742075597295
20.0,45.21666666666666,3453.0,269.79,260.188,9.602000000000032,10.148564142300781,0.9255693035438223
21.0,48.21666666666666,3633.0,266.998,257.413,9.58499999999998,10.156020909479551,0.9262493755921994
22.0,51.21666666666666,3813.0,267.249,257.585,9.664000000000044,10.265050233822594,0.9361930675650785
23.0,54.21666666666666,3993.0,265.735,256.644,9.091000000000008,9.679944483160122,0.8828302553931713
24.0,57.21666666666666,4173.0,265.327,256.454,8.87299999999999,9.470509515113154,0.8637293683322153
25.0,60.21666666666666,4353.0,262.724,253.309,9.414999999999992,10.07278777538899,0.9186583476525066
26.0,63.21666666666666,4533.0,263.892,255.22,8.671999999999997,9.299512927194286,0.8481341382514646
27.0,66.21666666666667,4713.0,263.983,255.119,8.864000000000004,9.527250077449084,0.8689042208559384
28.0,69.21666666666667,4893.0,263.945,255.221,8.72399999999999,9.398009936223074,0.8571172620480548
29.0,72.21666666666667,5073.0,263.587,255.096,8.490999999999985,9.167423147215112,0.8360872867021908
30.0,75.21666666666667,5253.0,262.025,254.007,8.017999999999972,8.675782916730721,0.79124871650221
31.0,78.21666666666667,5433.0,258.876,250.878,7.9979999999999905,8.672901788680058,0.7909859518740436
32.0,81.21666666666667,5613.0,259.645,252.098,7.546999999999969,8.201328704545391,0.7479775454697084
33.0,84.21666666666667,5793.0,257.041,249.908,7.13300000000001,7.767756182633579,0.708434866178855
34.0,87.21666666666667,5973.0,255.8,249.286,6.51400000000001,7.10839373770205,0.6482996952935017
35.0,90.21666666666667,6153.0,254.678,248.826,5.852000000000004,6.399049622024692,0.5836060962863465
36.0,93.21666666666667,6333.0,255.129,250.076,5.052999999999997,5.536498492440049,0.5049397118514346
37.0,96.21666666666667,6513.0,252.29,249.387,2.9029999999999916,3.1870960008755733,0.2906695158541845
38.0,99.21666666666667,6693.0,249.671,248.75,0.9209999999999923,1.0131124674173704,0.0923978789246211
39.0,102.21666666666667,6873.0,246.599,246.23,0.3689999999999998,0.4066888028356428,0.03709083045853606
40.0,105.21666666666667,7053.0,248.813,248.264,0.5489999999999782,0.6062253754465987,0.055288964101230256
41.0,108.21666666666667,7233.0,247.145,245.725,1.420000000000016,1.5709570893845093,0.1432744217537366
42.0,111.21666666666667,7413.0,244.672,244.371,0.3009999999999877,0.333614695083393,0.030426325995542885
43.0,114.21666666666667,7593.0,243.378,243.235,0.14299999999997226,0.15878376317065832,0.014481396090246802
44.0,117.21666666666667,7773.0,243.037,242.156,0.8810000000000002,0.980000289170376,0.08937798218561883
45.0,120.21666666666667,7953.0,244.529,244.341,0.18799999999998818,0.20949682170936884,0.019106528238409977
46.0,123.21666666666667,8133.0,244.529,244.666,-0.13700000000000045,-0.15293211159462475,-0.013947713788212043
47.0,126.21666666666667,8313.0,242.645,241.721,0.9240000000000066,1.0332324389862204,0.09423286048567572
48.0,129.21666666666667,8493.0,243.321,243.628,-0.30699999999998795,-0.34387608483335175,-0.03136218521967426
49.0,132.21666666666667,8673.0,242.066,241.738,0.32800000000000296,0.36801434428772156,0.033563642655294906
50.0,135.21666666666667,8853.0,241.294,240.463,0.8310000000000173,0.9339189189343855,0.08517526925425027
51.0,138.21666666666667,9033.0,240.247,239.779,0.46800000000001774,0.5268189166549625,0.048046936585799525
52.0,141.21666666666667,9213.0,241.853,240.958,0.8950000000000102,1.0091045898637137,0.09203235249309717
53.0,144.21666666666667,9393.0,239.144,239.028,0.11600000000001387,0.13099635740631904,0.011947129228456215
54.0,147.21666666666667,9573.0,240.616,240.769,-0.1529999999999916,-0.17304990050196448,-0.015782496286180926
55.0,150.21666666666667,9753.0,239.369,238.277,1.092000000000013,1.237006620587794,0.11281747252542598
56.0,153.21666666666667,9933.0,239.294,238.525,0.7690000000000055,0.8724410989954539,0.07956836938285929
57.0,156.21666666666667,10113.0,240.109,240.147,-0.03799999999998249,-0.043176242862086475,-0.0039377595170266505
58.0,159.21666666666667,10293.0,239.44,238.861,0.5790000000000077,0.6588438980815804,0.06008787837775998
59.0,162.21666666666667,10473.0,238.844,238.805,0.03899999999998727,0.044442929063125795,0.0040532838265216024
60.0,165.21666666666667,10653.0,237.584,237.31,0.2740000000000009,0.3126902005111994,0.028517970330974855
61.0,168.21666666666667,10833.0,238.17,237.205,0.964999999999975,1.1028294333777078,0.10058024527079748
62.0,171.21666666666667,11013.0,235.25,234.879,0.3710000000000093,0.42458446717323317,0.03872295076098925
63.0,174.21666666666667,11193.0,237.438,236.65,0.7879999999999825,0.903061942147686,0.0823610513891939
64.0,177.21666666666667,11373.0,237.109,237.129,-0.01999999999998181,-0.022951684304755065,-0.0020932394138954255
65.0,180.21666666666667,11553.0,235.097,234.723,0.3739999999999952,0.4297755084699668,0.039196384087153924
66.0,183.21666666666667,11733.0,239.097,238.697,0.4000000000000057,0.460264981734304,0.04197708489753406
67.0,186.21666666666667,11913.0,235.231,234.239,0.9919999999999902,1.1429573309970518,0.10423998961802036
68.0,189.21666666666667,12093.0,234.86,234.641,0.2190000000000225,0.25265361470214426,0.023042513888538826
69.0,192.21666666666667,12273.0,236.976,236.926,0.05000000000001137,0.05775734799929762,0.00526758540544914
70.0,195.21666666666667,12453.0,233.936,233.333,0.6030000000000086,0.697434296474274,0.06360739972708324
71.0,198.21666666666667,12633.0,234.994,234.432,0.5620000000000118,0.6508247911356279,0.05935651982033887
72.0,201.21666666666667,12813.0,234.676,234.126,0.549999999999983,0.6377131978470418,0.058160716345255825
73.0,204.21666666666667,12993.0,232.518,232.136,0.382000000000005,0.44345984702399116,0.04044442307348827
74.0,207.21666666666667,13173.0,232.065,231.434,0.6310000000000002,0.7334017199310352,0.06688770052750691
75.0,210.21666666666667,13353.0,233.591,232.987,0.6040000000000134,0.7028532327238418,0.06410161752776256
76.0,213.21666666666667,13533.0,233.249,232.701,0.5480000000000018,0.6384355235071821,0.05822659388702563
77.0,216.21666666666667,13713.0,232.805,231.955,0.8499999999999943,0.9914205948499376,0.09041953685541008
78.0,219.21666666666667,13893.0,233.076,231.868,1.2079999999999984,1.4105949676838108,0.128649076215577
79.0,222.21666666666667,14073.0,231.087,230.694,0.3930000000000007,0.45942889063692693,0.04190083172084348
80.0,225.21666666666667,14253.0,233.191,232.282,0.9089999999999918,1.063834496458817,0.09702382920053648
81.0,228.21666666666667,14433.0,230.882,229.619,1.2630000000000052,1.4797629716721297,0.13495733621978198
82.0,231.21666666666667,14613.0,232.154,231.217,0.9369999999999834,1.0990091434833065,0.10023182720817145
83.0,234.21666666666667,14793.0,231.762,230.792,0.9699999999999989,1.1389397537052026,0.10387357855101524
84.0,237.21666666666667,14973.0,230.027,228.81,1.2169999999999845,1.4304786928182902,0.1304625116303336
85.0,240.21666666666667,15153.0,230.958,230.324,0.6339999999999861,0.7459959414471092,0.0680363186644039
86.0,243.21666666666667,15333.0,229.366,227.984,1.382000000000005,1.627819827093384,0.14846041691530104
87.0,246.21666666666667,15513.0,230.202,229.641,0.561000000000007,0.6614652369102701,0.06032694971041381
88.0,249.21666666666667,15693.0,230.382,229.284,1.0980000000000132,1.2959470575055252,0.11819295800135905
89.0,252.21666666666667,15873.0,228.215,227.57,0.6450000000000102,0.7620445600807175,0.06949998471245449
90.0,255.21666666666667,16053.0,230.112,229.021,1.0910000000000082,1.2902569406992954,0.11767400799270974
91.0,258.2166666666667,16233.0,228.004,226.781,1.2229999999999848,1.4477843218758264,0.13204081953769634
92.0,261.2166666666667,16413.0,229.639,228.609,1.0300000000000011,1.2204945444071083,0.11131153822414708
93.0,264.2166666666667,16593.0,229.206,228.315,0.8909999999999911,1.0568001366821267,0.09638228155023885
94.0,267.2166666666667,16773.0,228.73,228.044,0.6859999999999786,0.8144252510207525,0.07427720826375787
95.0,270.2166666666667,16953.0,229.152,228.14,1.0120000000000005,1.2025830769204904,0.1096779766429638
96.0,273.2166666666667,17133.0,228.702,227.719,0.9830000000000041,1.1692062809383725,0.10663394623841345
97.0,276.2166666666667,17313.0,229.079,227.507,1.5720000000000027,1.8714958848290586,0.17068415969174278
98.0,279.2166666666667,17493.0,228.227,227.38,0.8470000000000084,1.0092858959050737,0.09204888796590661
99.0,282.2166666666667,17673.0,226.237,224.907,1.329999999999984,1.5862539580181287,0.14466952670150024
100.0,285.2166666666667,17853.0,226.309,225.121,1.1879999999999882,1.4181550107336192,0.12933856722950346
101.0,288.2166666666667,18033.0,NA,NA,0.0,0.0,0.0
102.0,291.2166666666667,18213.0,NA,NA,0.0,0.0,0.0
103.0,294.2166666666667,18393.0,NA,NA,0.0,0.0,0.0
104.0,297.2166666666667,18573.0,NA,NA,0.0,0.0,0.0
105.0,300.2166666666667,18753.0,NA,NA,0.0,0.0,0.0
106.0,303.2166666666667,18933.0,NA,NA,0.0,0.0,0.0
107.0,306.2166666666667,19113.0,NA,NA,0.0,0.0,0.0
108.0,309.2166666666667,19293.0,NA,NA,0.0,0.0,0.0
109.0,312.2166666666667,19473.0,NA,NA,0.0,0.0,0.0
110.0,315.2166666666667,19653.0,NA,NA,0.0,0.0,0.0
111.0,318.2166666666667,19833.0,NA,NA,0.0,0.0,0.0
112.0,321.2166666666667,20013.0,NA,NA,0.0,0.0,0.0
113.0,324.2166666666667,20193.0,NA,NA,0.0,0.0,0.0
114.0,327.2166666666667,20373.0,NA,NA,0.0,0.0,0.0
115.0,330.2166666666667,20553.0,NA,NA,0.0,0.0,0.0
116.0,333.2166666666667,20733.0,NA,NA,0.0,0.0,0.0
117.0,336.2166666666667,20913.0,NA,NA,0.0,0.0,0.0
118.0,339.2166666666667,21093.0,NA,NA,0.0,0.0,0.0
119.0,342.2166666666667,21273.0,217.423,NA,217.423,263.5509710803479,24.036374538382056
120.0,345.2166666666667,21453.0,219.043,NA,219.043,265.70943164295295,24.2332304493902
121.0,348.2166666666667,21633.0,219.232,NA,219.232,266.1320808223524,24.27177689804391
122.0,351.2166666666667,21813.0,215.952,NA,215.952,262.3393849737523,23.925875467465133
123.0,354.2166666666667,21993.0,218.146,NA,218.146,265.19409018454684,24.18623027990257
124.0,357.2166666666667,22173.0,216.066,NA,216.066,262.85166483167643,23.972596412878683
125.0,360.2166666666667,22353.0,215.553,NA,215.553,262.4118986897787,23.932488863084338
126.0,363.2166666666667,22533.0,215.521,NA,215.521,262.5558413889242,23.945616724516775
127.0,366.2166666666667,22713.0,217.721,NA,217.721,265.41935308758167,24.20677470622266
128.0,369.2166666666667,22893.0,214.904,NA,214.904,262.1648849996242,23.909960721570293
129.0,372.2166666666667,23073.0,217.398,NA,217.398,265.3877966676376,24.20389669774575
130.0,375.2166666666667,23253.0,217.068,NA,217.068,265.16381800305464,24.183469396535465
131.0,378.2166666666667,23433.0,217.018,NA,217.018,265.28029123285137,24.19409198754172
132.0,381.2166666666667,23613.0,214.397,NA,214.397,262.2505826529847,23.917776518585914
133.0,384.2166666666667,23793.0,214.865,NA,214.865,262.9963767109623,23.985794425074996
134.0,387.2166666666667,23973.0,216.914,NA,216.914,265.6781528382579,24.230377759978047
135.0,390.2166666666667,24153.0,214.688,NA,214.688,263.12256023913176,23.997302614671955
136.0,393.2166666666667,24333.0,216.813,NA,216.813,265.89833280627,24.25045861247991
137.0,396.2166666666667,24513.0,213.687,NA,213.687,262.2323940150513,23.91611767850683
138.0,399.2166666666667,24693.0,216.269,NA,216.269,265.56965761031785,24.22048277866303
139.0,402.2166666666667,24873.0,214.511,NA,214.511,263.577134326276,24.0387606786254
140.0,405.2166666666667,25053.0,215.922,NA,215.922,265.477132515223,24.212044305335525
141.0,408.2166666666667,25233.0,215.489,NA,215.489,265.10962892119295,24.17852724412305
142.0,411.2166666666667,25413.0,214.889,NA,214.889,264.5348545610776,24.12610667538768
143.0,414.2166666666667,25593.0,213.241,NA,213.241,262.66725305634003,23.9557776909324
144.0,417.2166666666667,25773.0,216.538,NA,216.538,266.8910843417594,24.340999533777833
145.0,420.2166666666667,25953.0,216.474,NA,216.474,266.9738118419298,24.3485444468949
146.0,423.2166666666667,26133.0,213.901,NA,213.901,263.9593169896191,24.073616500254648
147.0,426.2166666666667,26313.0,213.584,NA,213.584,263.72571318134794,24.052311366730834
148.0,429.2166666666667,26493.0,214.021,NA,214.021,264.4222993323605,24.115841413899144
149.0,432.2166666666667,26673.0,214.104,NA,214.104,264.6810078387316,24.1394361459918
150.0,435.2166666666667,26853.0,215.311,NA,215.311,266.32929466543897,24.289763194118446
151.0,438.2166666666667,27033.0,215.112,NA,215.112,266.2382952657336,24.281463867255336
152.0,441.2166666666667,27213.0,214.94,NA,214.94,266.1795993980165,24.27611068697859
153.0,444.2166666666667,27393.0,214.882,NA,214.882,266.2610854908049,24.28354238126491
154.0,447.2166666666667,27573.0,214.379,NA,214.379,265.7899585242971,24.240574661678476
155.0,450.2166666666667,27753.0,212.596,NA,212.596,263.72945869781915,24.052652965308038
156.0,453.2166666666667,27933.0,214.353,NA,214.353,266.0595986521792,24.265166379469473
157.0,456.2166666666667,28113.0,211.681,NA,211.681,262.8909691741403,23.976181047352135
158.0,459.2166666666667,28293.0,212.424,NA,212.424,263.9614064797653,24.073807065926033
159.0,462.2166666666667,28473.0,213.665,NA,213.665,265.65131228790983,24.227929848219883
160.0,465.2166666666667,28653.0,213.86,NA,213.86,266.0409919405167,24.26346941023193
161.0,468.2166666666667,28833.0,213.4,NA,213.4,265.61496741516913,24.22461512329148
162.0,471.2166666666667,29013.0,213.071,NA,213.071,265.35076603787326,24.200519430408207
163.0,474.2166666666667,29193.0,211.404,NA,211.404,263.4182369766015,24.02426892321932
164.0,477.2166666666667,29373.0,210.813,NA,210.813,262.8242606501115,23.97009709682869
165.0,480.2166666666667,29553.0,211.403,NA,211.403,263.7020124341235,24.050149811283738
166.0,483.2166666666667,29733.0,211.349,NA,211.349,263.776173748456,24.05691347115662
167.0,486.2166666666667,29913.0,209.972,NA,209.972,262.19757860478285,23.912942443608284
168.0,489.2166666666667,30093.0,210.273,NA,210.273,262.7130250667545,23.959952189630645
169.0,492.2166666666667,30273.0,211.511,NA,211.511,264.39957627327357,24.113769025561385
170.0,495.2166666666667,30453.0,210.008,NA,210.008,262.65898252239435,23.955023401730823
171.0,498.2166666666667,30633.0,212.115,NA,212.115,265.4332736542729,24.208044289686555
172.0,501.2166666666667,30813.0,209.362,NA,209.362,262.1249527818124,23.906318823612043
173.0,504.2166666666667,30993.0,211.189,NA,211.189,264.5497203127492,24.12746246160811
174.0,507.2166666666667,31173.0,211.594,NA,211.594,265.19410657840797,24.186231775055422
175.0,510.2166666666667,31353.0,209.599,NA,209.599,262.82898211135404,23.97052770351676
176.0,513.2166666666666,31533.0,211.564,NA,211.564,265.4290068590397,24.207655149445927
177.0,516.2166666666666,31713.0,209.142,NA,209.142,262.52428983097934,23.9427391594639
178.0,519.2166666666666,31893.0,209.142,NA,209.142,262.65773243650807,23.954909391403163
179.0,522.2166666666666,32073.0,209.676,NA,209.676,263.4616747263349,24.0282305326849
180.0,525.2166666666666,32253.0,209.226,NA,209.226,263.0287852860111,23.988750151798122
181.0,528.2166666666666,32433.0,210.884,NA,210.884,265.2462710466291,24.19098927866324
182.0,531.2166666666666,32613.0,208.769,NA,208.769,262.7174023154354,23.960351403446136
183.0,534.2166666666666,32793.0,209.234,NA,209.234,263.43375511951564,24.02568420882307
184.0,537.2166666666666,32973.0,212.123,NA,212.123,267.2036811664387,24.369508988046586
185.0,540.2166666666666,33153.0,210.321,NA,210.321,265.06477578641216,24.174436548716418
186.0,543.2166666666666,33333.0,211.652,NA,211.652,266.8736341610545,24.339408042471746
187.0,546.2166666666666,33513.0,209.051,NA,209.051,263.72340735218035,24.052101070508943
188.0,549.2166666666666,33693.0,209.442,NA,209.442,264.34590044160694,24.108873682591067
189.0,552.2166666666666,33873.0,212.108,NA,212.108,267.84126011947785,24.427657460997448
190.0,555.2166666666666,34053.0,212.177,NA,212.177,268.0585289591968,24.447472812789158
191.0,558.2166666666666,34233.0,211.761,NA,211.761,267.662469710824,24.411351418911323
192.0,561.2166666666666,34413.0,209.963,NA,209.963,265.5178622358236,24.215758937139714
193.0,564.2166666666666,34593.0,209.257,NA,209.257,264.75230427452584,24.145938523224476
194.0,567.2166666666666,34773.0,208.927,NA,208.927,264.461480519135,24.11941481632794
195.0,570.2166666666666,34953.0,209.091,NA,209.091,264.7955207518567,24.149879952205353
196.0,573.2166666666666,35133.0,208.776,NA,208.776,264.52252116502973,24.124981845054016
197.0,576.2166666666666,35313.0,210.193,NA,210.193,266.4443259623086,24.30025427796405
198.0,579.2166666666666,35493.0,208.3,NA,208.3,264.1697085451569,24.092804630003855
199.0,582.2166666666666,35673.0,208.229,NA,208.229,264.2042900283415,24.0959585302855
200.0,585.2166666666666,35853.0,207.647,NA,207.647,263.58980829008556,24.039916569418608
201.0,588.2166666666666,36033.0,NA,NA,0.0,0.0,0.0
202.0,591.2166666666666,36213.0,NA,NA,0.0,0.0,0.0
203.0,594.2166666666666,36393.0,NA,NA,0.0,0.0,0.0
204.0,597.2166666666666,36573.0,203.564,NA,203.564,258.8900343886001,23.6112878101363
205.0,600.2166666666666,36753.0,204.796,NA,204.796,260.57772180886894,23.765208271028587
206.0,603.2166666666666,36933.0,203.06,NA,203.06,258.48843305218685,23.57466096676868
207.0,606.2166666666666,37113.0,202.386,NA,202.386,257.74935778861675,23.507255827738444
208.0,609.2166666666666,37293.0,203.927,NA,203.927,259.8314589420931,23.697147608241494
209.0,612.2166666666666,37473.0,203.516,NA,203.516,259.4268546965828,23.660246893571234
210.0,615.2166666666666,37653.0,203.674,NA,203.674,259.74717854625527,23.689461067940403
211.0,618.2166666666666,37833.0,201.123,NA,201.123,256.6110606766965,23.403440859400757
212.0,621.2166666666666,38013.0,202.725,NA,202.725,258.7729353586359,23.600608144905838
213.0,624.2166666666666,38193.0,200.658,NA,200.658,256.2509380586674,23.370596957929976
214.0,627.2166666666666,38373.0,200.51,NA,200.51,256.17810218059094,23.36395418048886
215.0,630.2166666666666,38553.0,202.68,NA,202.68,259.0677746555923,23.627498077207083
216.0,633.2166666666666,38733.0,202.076,NA,202.076,258.41238596757205,23.567725320882573
217.0,636.2166666666666,38913.0,199.733,NA,199.733,255.5312808022668,23.30496277990665
