"Frame","Time (aligned)","Time [ s]","Intensity Ch3-T2","background","Intensity (bg-subst)","bleach-Corrected","Normalized"
1.0,-12.333333333333334,0.0,257.529,244.191,13.337999999999994,13.337999999999994,1.0068979077213416
2.0,-9.333333333333334,180.0,253.825,239.895,13.929999999999978,13.976263262471672,1.0550809894096105
3.0,-6.333333333333333,360.0,252.369,239.695,12.674000000000007,12.757707300550935,0.9630910772414175
4.0,-3.3333333333333335,540.0,248.816,236.158,12.658000000000015,12.78269142495168,0.9649771518092208
5.0,-0.3333333333333333,720.0,250.305,237.099,13.206000000000017,13.378467993319104,1.0099528738184096
6.0,3.2166666666666663,933.0,269.238,256.075,13.163000000000011,13.376661242220516,1.0098164805134957
7.0,6.216666666666667,1113.0,264.663,251.868,12.795000000000016,13.042806654380971,0.9846134901117257
8.0,9.216666666666667,1293.0,265.122,251.949,13.173000000000002,13.468952426941762,1.0167836270719712
9.0,12.216666666666667,1473.0,261.205,247.796,13.408999999999992,13.751326685660139,1.0381003200017882
10.0,15.216666666666667,1653.0,259.159,246.796,12.363,12.716047933831538,0.9599461732688012
11.0,18.21666666666667,1833.0,261.223,247.927,13.29600000000002,13.715468344102284,1.0353933407628497
12.0,21.21666666666667,2013.0,257.201,245.001,12.200000000000017,12.620959017251698,0.9527678233548913
13.0,24.21666666666667,2193.0,258.98,246.391,12.589000000000027,13.060158872510746,0.9859234250441888
14.0,27.21666666666667,2373.0,255.629,243.464,12.164999999999992,12.655407020091978,0.9553683348247561
15.0,30.21666666666667,2553.0,258.329,246.28,12.049000000000007,12.569098428569603,0.9488528197383672
16.0,33.21666666666666,2733.0,254.272,242.347,11.924999999999983,12.47335353638307,0.9416249496215862
17.0,36.21666666666666,2913.0,254.315,241.894,12.420999999999992,13.02674731309128,0.9834011556429917
18.0,39.21666666666666,3093.0,252.033,239.834,12.198999999999984,12.827480401903655,0.9683583129414687
19.0,42.21666666666666,3273.0,252.711,240.916,11.795000000000016,12.434723917730894,0.9387087641217399
20.0,45.21666666666666,3453.0,253.468,241.211,12.256999999999977,12.954691802976464,0.9779616188028056
21.0,48.21666666666666,3633.0,253.166,241.945,11.221000000000004,11.88948467660619,0.8975481515039533
22.0,51.21666666666666,3813.0,251.56,240.057,11.503000000000014,12.218426411388752,0.922380266102453
23.0,54.21666666666666,3993.0,249.696,237.97,11.725999999999999,12.485648334565557,0.9425530952630468
24.0,57.21666666666666,4173.0,251.391,239.858,11.532999999999987,12.309634423284121,0.929265642946423
25.0,60.21666666666666,4353.0,248.511,237.179,11.331999999999994,12.123720772247271,0.9152308501554619
26.0,63.21666666666666,4533.0,247.192,235.388,11.804000000000002,12.658146977929128,0.9555751767660869
27.0,66.21666666666667,4713.0,245.96,234.439,11.521000000000015,12.383060485366762,0.9348086440172904
28.0,69.21666666666667,4893.0,245.956,233.787,12.168999999999983,13.109168146939313,0.9896231803209219
29.0,72.21666666666667,5073.0,244.4,233.231,11.169000000000011,12.058762116505225,0.9103270613899005
30.0,75.21666666666667,5253.0,246.971,235.874,11.097000000000008,12.007378776123874,0.9064480856872678
31.0,78.21666666666667,5433.0,245.95,234.895,11.054999999999978,11.987863125013499,0.904974831206022
32.0,81.21666666666667,5613.0,247.613,236.241,11.371999999999986,12.357958132779974,0.9329136442948042
33.0,84.21666666666667,5793.0,246.303,235.517,10.786000000000001,11.745831793899576,0.886703663047256
34.0,87.21666666666667,5973.0,243.404,232.808,10.596000000000004,11.562870746805471,0.8728917650480387
35.0,90.21666666666667,6153.0,242.843,231.278,11.564999999999998,12.646105413314336,0.9546661479599446
36.0,93.21666666666667,6333.0,243.475,233.368,10.107,11.074092670313002,0.8359934577635636
37.0,96.21666666666667,6513.0,244.157,233.675,10.482,11.507798925655479,0.8687343425341437
38.0,99.21666666666667,6693.0,244.087,233.55,10.536999999999978,11.59084263754278,0.8750033888490888
39.0,102.21666666666667,6873.0,242.054,232.153,9.90100000000001,10.91226514058457,0.8237769484596745
40.0,105.21666666666667,7053.0,242.916,232.68,10.23599999999999,11.302956180458333,0.8532705749864677
41.0,108.21666666666667,7233.0,239.727,229.871,9.855999999999995,10.903769769699677,0.823135625085157
42.0,111.21666666666667,7413.0,241.199,231.187,10.012,11.096844940780953,0.8377110476218699
43.0,114.21666666666667,7593.0,240.666,231.199,9.466999999999985,10.511929272286094,0.7935552249497374
44.0,117.21666666666667,7773.0,239.033,230.839,8.193999999999988,9.114781350127181,0.6880832411741317
45.0,120.21666666666667,7953.0,235.4,229.449,5.950999999999993,6.631465882938994,0.5006154687851804
46.0,123.21666666666667,8133.0,232.431,228.968,3.4630000000000223,3.8657219157093956,0.291826908738966
47.0,126.21666666666667,8313.0,232.283,230.32,1.9629999999999939,2.195059824383041,0.16570708835615988
48.0,129.21666666666667,8493.0,228.63,226.374,2.2560000000000002,2.5269851706321567,0.19076443853294175
49.0,132.21666666666667,8673.0,228.419,226.359,2.0600000000000023,2.3113096013192083,0.17448289111295245
50.0,135.21666666666667,8853.0,227.897,226.222,1.674999999999983,1.8824478811252072,0.14210772476379102
51.0,138.21666666666667,9033.0,229.168,227.752,1.4159999999999968,1.5939649273149508,0.12032988081381203
52.0,141.21666666666667,9213.0,229.065,227.845,1.2199999999999989,1.3755392174678385,0.10384072275131344
53.0,144.21666666666667,9393.0,229.174,227.977,1.1970000000000027,1.3517468949598752,0.1020446184063517
54.0,147.21666666666667,9573.0,229.038,227.576,1.4620000000000175,1.6535879381299936,0.12483087682833548
55.0,150.21666666666667,9753.0,226.505,225.14,1.365000000000009,1.5462582757347345,0.11672846173595097
56.0,153.21666666666667,9933.0,227.872,226.476,1.396000000000015,1.5837812408292042,0.11956110493921403
57.0,156.21666666666667,10113.0,227.581,226.286,1.2949999999999875,1.471400908063874,0.11107741008762913
58.0,159.21666666666667,10293.0,224.859,223.779,1.0800000000000125,1.228931623364604,0.09277318040923767
59.0,162.21666666666667,10473.0,225.238,223.436,1.8019999999999925,2.0534912351738077,0.1550199451357491
60.0,165.21666666666667,10653.0,224.546,222.646,1.9000000000000057,2.1682897115740096,0.16368618787806136
61.0,168.21666666666667,10833.0,223.61,222.743,0.8670000000000186,0.9908322473974279,0.0747988391668395
62.0,171.21666666666667,11013.0,223.416,222.008,1.407999999999987,1.6113609967112987,0.12164312611878715
63.0,174.21666666666667,11193.0,225.332,223.878,1.4540000000000077,1.6663097257395578,0.12579125629501306
64.0,177.21666666666667,11373.0,225.235,223.852,1.3830000000000098,1.5871089696752674,0.1198123182554957
65.0,180.21666666666667,11553.0,223.699,222.288,1.4110000000000014,1.6214257819548972,0.12240292602907685
66.0,183.21666666666667,11733.0,225.768,224.073,1.6949999999999932,1.9503728600990777,0.14723544400286784
67.0,186.21666666666667,11913.0,222.984,221.413,1.570999999999998,1.81006649898829,0.13664358754444472
68.0,189.21666666666667,12093.0,224.048,222.399,1.649000000000001,1.9024009618438047,0.14361400120914647
69.0,192.21666666666667,12273.0,223.943,221.849,2.0940000000000225,2.41887773421006,0.1826033085627418
70.0,195.21666666666667,12453.0,222.977,222.073,0.9039999999999964,1.045573140982972,0.07893127965402506
71.0,198.21666666666667,12633.0,223.636,222.521,1.115000000000009,1.291227121203231,0.09747592493121794
72.0,201.21666666666667,12813.0,222.128,219.97,2.157999999999987,2.502154692643547,0.18888996287433837
73.0,204.21666666666667,12993.0,223.332,221.914,1.4180000000000064,1.6461415263874715,0.12426874034583606
74.0,207.21666666666667,13173.0,222.822,221.82,1.0020000000000095,1.1646093872756007,0.08791743554959038
75.0,210.21666666666667,13353.0,220.246,219.187,1.0589999999999975,1.2323204858518713,0.09302900876041362
76.0,213.21666666666667,13533.0,219.825,218.351,1.4739999999999895,1.717251754834994,0.12963691700211113
77.0,216.21666666666667,13713.0,222.565,220.23,2.335000000000008,2.7234906929113265,0.20559882144181757
78.0,219.21666666666667,13893.0,220.375,219.128,1.247000000000014,1.4561356992564025,0.10992502541157782
79.0,222.21666666666667,14073.0,222.282,221.064,1.2180000000000177,1.4238788518976697,0.1074899262876316
80.0,225.21666666666667,14253.0,222.02,220.217,1.8029999999999973,2.11011396822361,0.15929444741774862
81.0,228.21666666666667,14433.0,219.994,218.023,1.9710000000000036,2.3092738061486626,0.17432920706003813
82.0,231.21666666666667,14613.0,219.554,217.596,1.9579999999999984,2.296542052230897,0.1733680752275729
83.0,234.21666666666667,14793.0,220.418,219.653,0.7650000000000148,0.8982359913242245,0.0678086624909557
84.0,237.21666666666667,14973.0,217.704,216.976,0.7280000000000086,0.8557013051534436,0.0645976798465605
85.0,240.21666666666667,15153.0,219.661,218.809,0.8520000000000039,1.0025055869289492,0.07568007032221584
86.0,243.21666666666667,15333.0,220.148,218.55,1.5979999999999848,1.882240292109402,0.14209205367774513
87.0,246.21666666666667,15513.0,217.446,216.78,0.6659999999999968,0.7852688908774194,0.05928067200653264
88.0,249.21666666666667,15693.0,220.124,218.642,1.4819999999999993,1.7491744437369439,0.13204679019630913
89.0,252.21666666666667,15873.0,218.123,216.617,1.5060000000000002,1.7792854379558798,0.13431989688985058
90.0,255.21666666666667,16053.0,220.597,218.401,2.195999999999998,2.5970707990610715,0.19605526718989255
91.0,258.2166666666667,16233.0,220.018,218.775,1.242999999999995,1.471460271538567,0.11108189149102271
92.0,261.2166666666667,16413.0,217.463,215.884,1.5790000000000077,1.8710299860377002,0.14124577734482321
93.0,264.2166666666667,16593.0,217.156,215.576,1.5800000000000125,1.8740114657214255,0.14147085199285567
94.0,267.2166666666667,16773.0,215.877,214.562,1.3149999999999977,1.5611795992599433,0.11785488619523768
95.0,270.2166666666667,16953.0,218.256,217.034,1.2220000000000084,1.452130948613487,0.10962270309614093
96.0,273.2166666666667,17133.0,215.717,214.281,1.436000000000007,1.7080164999262506,0.12893973910101
97.0,276.2166666666667,17313.0,218.15,216.397,1.7530000000000143,2.086979825766769,0.15754802969119888
98.0,279.2166666666667,17493.0,216.166,213.61,2.555999999999983,3.0457317000393456,0.22992509193658592
99.0,282.2166666666667,17673.0,217.713,215.855,1.858000000000004,2.215984852629868,0.16728673801583452
100.0,285.2166666666667,17853.0,215.809,213.919,1.8899999999999864,2.2561556988944003,0.17031927220800372
101.0,288.2166666666667,18033.0,217.161,216.104,1.056999999999988,1.2628867681491829,0.09533648557042884
102.0,291.2166666666667,18213.0,216.752,215.288,1.4639999999999986,1.7506878446263232,0.13216103822367903
103.0,294.2166666666667,18393.0,216.332,214.487,1.8449999999999989,2.2081997102739033,0.16669903044726847
104.0,297.2166666666667,18573.0,215.556,214.822,0.7340000000000089,0.8792422977999422,0.06637481106874096
105.0,300.2166666666667,18753.0,213.968,212.112,1.8559999999999945,2.225139717536717,0.1679778472016328
106.0,303.2166666666667,18933.0,215.482,214.365,1.1169999999999902,1.3402802683816064,0.10117899220225209
107.0,306.2166666666667,19113.0,214.975,213.73,1.2450000000000045,1.4951037922519446,0.11286676265142652
108.0,309.2166666666667,19293.0,215.097,213.757,1.3400000000000034,1.6105076843471022,0.12157870878229425
109.0,312.2166666666667,19473.0,215.389,213.921,1.4680000000000177,1.7657800511752355,0.13330036279985222
110.0,315.2166666666667,19653.0,212.636,211.3,1.3359999999999843,1.608296647929054,0.12141179560616376
111.0,318.2166666666667,19833.0,212.983,211.058,1.9250000000000114,2.3191895447599986,0.1750777553027481
112.0,321.2166666666667,20013.0,214.494,213.193,1.3009999999999877,1.5686474406719444,0.11841864042322828
113.0,324.2166666666667,20193.0,213.839,212.769,1.0699999999999932,1.2911335058439495,0.09746885782150201
114.0,327.2166666666667,20373.0,213.744,212.638,1.1059999999999945,1.3356069583117405,0.10082619971975987
115.0,330.2166666666667,20553.0,213.588,212.264,1.3239999999999839,1.6000907302915635,0.12079232332395333
116.0,333.2166666666667,20733.0,210.986,210.215,0.7709999999999866,0.9324832599938085,0.07039402035334698
117.0,336.2166666666667,20913.0,211.706,210.381,1.3249999999999886,1.6037239193301065,0.12106659611157254
118.0,339.2166666666667,21093.0,213.119,211.96,1.1589999999999918,1.403851929051568,0.10597807543204332
119.0,342.2166666666667,21273.0,211.036,209.675,1.36099999999999,1.649746676480183,0.12454089644760338
120.0,345.2166666666667,21453.0,212.699,211.202,1.497000000000014,1.8159312060622996,0.1370863196843622
121.0,348.2166666666667,21633.0,210.655,209.095,1.5600000000000023,1.893729227863042,0.142959364022046
122.0,351.2166666666667,21813.0,210.355,209.502,0.8529999999999802,1.0362279366831775,0.07822580157210186
123.0,354.2166666666667,21993.0,211.313,209.665,1.6479999999999961,2.0034282573328515,0.1512406448176835
124.0,357.2166666666667,22173.0,212.854,211.957,0.8970000000000198,1.0912311208335366,0.08237804261566224
125.0,360.2166666666667,22353.0,210.764,209.542,1.2220000000000084,1.487649627696723,0.1123040409019541
126.0,363.2166666666667,22533.0,210.769,209.399,1.3700000000000045,1.6689858654276257,0.12599328054547682
127.0,366.2166666666667,22713.0,210.056,208.56,1.4960000000000093,1.823743930163028,0.1376761094242503
128.0,369.2166666666667,22893.0,209.933,208.556,1.3769999999999811,1.6798246968156831,0.12681151391230688
129.0,372.2166666666667,23073.0,210.091,208.826,1.2650000000000148,1.5442440260929975,0.11657640417485535
130.0,375.2166666666667,23253.0,211.774,210.395,1.3789999999999907,1.684545419067803,0.12716788558411624
131.0,378.2166666666667,23433.0,208.895,208.218,0.6770000000000209,0.8275569637755668,0.06247303758778262
132.0,381.2166666666667,23613.0,210.718,209.545,1.1730000000000018,1.4348145424234084,0.10831547163999736
133.0,384.2166666666667,23793.0,208.009,207.204,0.8049999999999784,0.9853260570698762,0.07438317178639811
134.0,387.2166666666667,23973.0,209.829,208.993,0.8360000000000127,1.0239400673667305,0.07729817899712182
135.0,390.2166666666667,24153.0,211.136,209.308,1.828000000000003,2.2404048671427077,0.1691302274085098
136.0,393.2166666666667,24333.0,208.057,206.82,1.2369999999999948,1.5170503506771023,0.11452352856535482
137.0,396.2166666666667,24513.0,209.64,208.297,1.3429999999999893,1.648102622818473,0.12441678532208551
138.0,399.2166666666667,24693.0,207.247,205.774,1.4730000000000132,1.8087849190591425,0.13654683989492936
139.0,402.2166666666667,24873.0,207.193,206.313,0.8800000000000239,1.0812866389468567,0.0816273245166166
140.0,405.2166666666667,25053.0,206.863,205.856,1.007000000000005,1.2381113200268195,0.09346616416712501
141.0,408.2166666666667,25233.0,208.978,207.849,1.129000000000019,1.3889747089272857,0.10485498037912311
142.0,411.2166666666667,25413.0,207.537,205.913,1.6239999999999952,1.99919308948894,0.15092092809547003
143.0,414.2166666666667,25593.0,206.725,205.115,1.6099999999999852,1.9831752684554265,0.14971172802912577
144.0,417.2166666666667,25773.0,206.319,205.086,1.2329999999999757,1.5197180494572906,0.1147249156039065
145.0,420.2166666666667,25953.0,208.582,207.517,1.0649999999999977,1.3134469248577407,0.099153318379239
146.0,423.2166666666667,26133.0,208.205,207.131,1.0740000000000123,1.3253435301698175,0.10005140407407458
147.0,426.2166666666667,26313.0,206.082,205.116,0.9659999999999798,1.1927814767640683,0.09004417253879989
148.0,429.2166666666667,26493.0,205.694,204.922,0.7719999999999914,0.9538036691940514,0.0720035176854423
149.0,432.2166666666667,26673.0,207.958,206.831,1.1270000000000095,1.3932271038105455,0.1051759975864075
150.0,435.2166666666667,26853.0,206.077,204.951,1.1260000000000048,1.3928075471912051,0.10514432487069417
151.0,438.2166666666667,27033.0,205.023,204.476,0.546999999999997,0.6770070824052377,0.05110788834805548
152.0,441.2166666666667,27213.0,205.803,203.956,1.8470000000000084,2.2873067836984213,0.17267089629800364
153.0,444.2166666666667,27393.0,207.534,206.471,1.0629999999999882,1.317167254012539,0.09943416945451274
154.0,447.2166666666667,27573.0,205.541,204.335,1.2059999999999889,1.4952149696579393,0.112875155536228
155.0,450.2166666666667,27753.0,207.527,205.731,1.7959999999999923,2.227972811441801,0.16819172007053423
156.0,453.2166666666667,27933.0,205.099,203.681,1.417999999999978,1.7600523943624966,0.13286797671041656
157.0,456.2166666666667,28113.0,204.298,203.044,1.2539999999999907,1.5573682821999588,0.11756716635917822
158.0,459.2166666666667,28293.0,204.357,203.221,1.1359999999999957,1.411611483452963,0.10656385134234579
159.0,462.2166666666667,28473.0,204.485,203.054,1.4310000000000116,1.7791731349729816,0.13431141903421173
160.0,465.2166666666667,28653.0,206.032,205.285,0.7470000000000141,0.9292650377797141,0.07015107379359635
161.0,468.2166666666667,28833.0,204.487,202.879,1.608000000000004,2.001447364590408,0.1510911053996458
162.0,471.2166666666667,29013.0,203.93,203.286,0.6440000000000055,0.8020138513847113,0.06054476450163451
163.0,474.2166666666667,29193.0,205.924,205.23,0.6940000000000168,0.8647530626750956,0.06528100536086191
164.0,477.2166666666667,29373.0,203.589,202.632,0.9569999999999936,1.1931086671227822,0.0900688724404055
165.0,480.2166666666667,29553.0,205.843,204.716,1.1269999999999811,1.4058086593532364,0.10612579080516708
166.0,483.2166666666667,29733.0,203.316,202.032,1.2839999999999918,1.6025086803960056,0.1209748566048903
167.0,486.2166666666667,29913.0,204.99,204.206,0.7840000000000202,0.9790014936570354,0.07390572466781659
168.0,489.2166666666667,30093.0,202.868,202.006,0.8619999999999948,1.0769743505230867,0.08130178589078177
169.0,492.2166666666667,30273.0,203.131,201.616,1.5149999999999864,1.8938275458676184,0.14296678613878758
170.0,495.2166666666667,30453.0,203.39,201.894,1.495999999999981,1.8710612826820736,0.1412481399573392
171.0,498.2166666666667,30633.0,202.596,201.712,0.8840000000000146,1.1062066044852137,0.0835085556727914
172.0,501.2166666666667,30813.0,204.296,203.751,0.5449999999999875,0.6823497065660649,0.05151120796788442
173.0,504.2166666666667,30993.0,204.657,203.631,1.0260000000000105,1.2852374557428814,0.09702375956759696
174.0,507.2166666666667,31173.0,204.341,203.148,1.193000000000012,1.4952057674038202,0.1128744608495869
175.0,510.2166666666667,31353.0,202.373,201.216,1.1569999999999823,1.4508329348080475,0.10952471483816444
176.0,513.2166666666666,31533.0,203.819,202.893,0.9259999999999877,1.161763156073186,0.08770257093401064
177.0,516.2166666666666,31713.0,204.104,203.374,0.7300000000000182,0.916328291670825,0.06917446691177277
178.0,519.2166666666666,31893.0,201.964,201.11,0.853999999999985,1.0725234697037132,0.08096578479732365
179.0,522.2166666666666,32073.0,203.574,202.364,1.210000000000008,1.5203868178469033,0.1147754015457457
180.0,525.2166666666666,32253.0,203.236,202.312,0.9239999999999782,1.1616080104971107,0.08769085885154382
181.0,528.2166666666666,32433.0,203.586,202.619,0.967000000000013,1.2162759815922202,0.09181779435274613
182.0,531.2166666666666,32613.0,203.671,202.834,0.8369999999999891,1.0532907938344127,0.07951389237771941
183.0,534.2166666666666,32793.0,201.167,200.65,0.5169999999999959,0.6509231358038775,0.04913878718910925
184.0,537.2166666666666,32973.0,200.935,200.066,0.8689999999999998,1.094647911511883,0.08263597929171178
185.0,540.2166666666666,33153.0,202.649,201.83,0.8189999999999884,1.0321748725475273,0.0779198320265893
186.0,543.2166666666666,33333.0,201.413,200.049,1.3640000000000043,1.7198780875951065,0.12983518128169858
187.0,546.2166666666666,33513.0,200.916,199.974,0.9420000000000073,1.1883581026914762,0.08971024795499709
188.0,549.2166666666666,33693.0,200.792,199.654,1.1380000000000052,1.4363195285690076,0.10842908443060714
189.0,552.2166666666666,33873.0,202.88,201.326,1.554000000000002,1.9623272965926282,0.1481378954268702
190.0,555.2166666666666,34053.0,202.735,201.647,1.0880000000000223,1.3745489827248576,0.10376596901830545
191.0,558.2166666666666,34233.0,201.153,199.594,1.5589999999999975,1.9705507165114156,0.14875868897241984
