"Frame","Time (aligned)","Time [ s]","Intensity Ch3-T2","background","Intensity (bg-subst)","bleach-Corrected","Normalized"
1.0,-12.333333333333334,0.0,277.456,266.459,10.997000000000014,10.997000000000014,1.0074022025479956
2.0,-9.333333333333334,180.0,274.37,263.885,10.485000000000014,10.519821989017654,0.963689355474148
3.0,-6.333333333333333,360.0,271.322,260.495,10.826999999999998,10.89850851689008,0.998379693043843
4.0,-3.3333333333333335,540.0,270.793,259.713,11.079999999999984,11.189146862732205,1.0250042006137494
5.0,-0.3333333333333333,720.0,267.659,256.824,10.83499999999998,10.976503158232017,1.0055245483202644
6.0,3.2166666666666663,933.0,284.105,274.597,9.508000000000038,9.662333441543193,0.8851374002695057
7.0,6.216666666666667,1113.0,280.521,270.312,10.209000000000003,10.406722402077,0.9533286413710942
8.0,9.216666666666667,1293.0,279.472,269.588,9.883999999999958,10.106059803225673,0.9257858420343086
9.0,12.216666666666667,1473.0,275.777,265.946,9.83099999999996,10.081981702343528,0.9235801193952393
10.0,15.216666666666667,1653.0,273.928,264.032,9.896000000000015,10.178598265242828,0.9324308730796416
11.0,18.21666666666667,1833.0,271.682,261.933,9.749000000000024,10.05656595116225,0.9212518586223529
12.0,21.21666666666667,2013.0,271.086,261.564,9.521999999999991,9.85055506248118,0.9023798187018127
13.0,24.21666666666667,2193.0,269.987,260.376,9.611000000000047,9.970703544658123,0.9133862609658713
14.0,27.21666666666667,2373.0,268.816,259.386,9.42999999999995,9.810151105587078,0.8986785333360974
15.0,30.21666666666667,2553.0,266.979,258.106,8.87299999999999,9.256005507236942,0.8479149163214386
16.0,33.21666666666666,2733.0,265.721,255.919,9.801999999999992,10.25273051267312,0.9392219060287285
17.0,36.21666666666666,2913.0,265.503,255.473,10.029999999999973,10.519143027961135,0.9636271578871897
18.0,39.21666666666666,3093.0,266.052,256.486,9.566000000000031,10.058830848808174,0.921459339105853
19.0,42.21666666666666,3273.0,265.707,255.999,9.707999999999998,10.234531563656747,0.937554754867216
20.0,45.21666666666666,3453.0,263.809,254.074,9.735000000000014,10.289134755811071,0.9425567896078196
21.0,48.21666666666666,3633.0,263.135,253.45,9.685000000000002,10.261978352457975,0.9400690729077021
22.0,51.21666666666666,3813.0,262.575,252.885,9.689999999999998,10.292667297779435,0.9428803951874797
23.0,54.21666666666666,3993.0,261.83,252.439,9.390999999999991,9.999379456754651,0.916013175306702
24.0,57.21666666666666,4173.0,265.318,255.393,9.924999999999983,10.593351396089034,0.9704251640251853
25.0,60.21666666666666,4353.0,261.182,251.555,9.62700000000001,10.299599353549652,0.9435154200352658
26.0,63.21666666666666,4533.0,260.256,250.66,9.595999999999975,10.29037431380952,0.9426703418000378
27.0,66.21666666666667,4713.0,259.948,249.935,10.012999999999977,10.762224168038967,0.985895092406812
28.0,69.21666666666667,4893.0,259.105,249.41,9.695000000000022,10.444028694599155,0.9567461589900556
29.0,72.21666666666667,5073.0,260.817,251.103,9.713999999999999,10.487851660822958,0.9607606495507581
30.0,75.21666666666667,5253.0,258.534,248.792,9.74199999999999,10.541216908804053,0.9656492799368339
31.0,78.21666666666667,5433.0,257.956,248.562,9.394000000000005,10.186701600757765,0.9331731953535101
32.0,81.21666666666667,5613.0,257.512,247.551,9.961000000000013,10.824623721475696,0.9916113284321071
33.0,84.21666666666667,5793.0,258.433,248.898,9.534999999999997,10.383506967813128,0.9512019450347722
34.0,87.21666666666667,5973.0,256.226,246.592,9.633999999999986,10.513089540838402,0.9630726160793751
35.0,90.21666666666667,6153.0,257.941,247.864,10.07699999999997,11.019005987891761,1.0094181051279165
36.0,93.21666666666667,6333.0,255.382,245.447,9.935000000000002,10.88563477585433,0.9972003682212143
37.0,96.21666666666667,6513.0,256.913,247.336,9.576999999999998,10.514233000477248,0.9631773649889592
38.0,99.21666666666667,6693.0,256.713,247.02,9.693000000000012,10.662431212461092,0.9767533589115017
39.0,102.21666666666667,6873.0,255.758,245.977,9.781000000000006,10.7800086193372,0.9875242726749712
40.0,105.21666666666667,7053.0,253.42,243.508,9.911999999999978,10.945183827735722,1.002655478344426
41.0,108.21666666666667,7233.0,254.593,244.624,9.968999999999994,11.02878255216478,1.0103137068722094
42.0,111.21666666666667,7413.0,254.534,244.132,10.401999999999987,11.529103183580036,1.056146580025609
43.0,114.21666666666667,7593.0,252.174,242.306,9.867999999999995,10.957190034743773,1.0037553309755216
44.0,117.21666666666667,7773.0,252.285,242.024,10.260999999999996,11.414055581358934,1.0456074140825877
45.0,120.21666666666667,7953.0,253.641,243.266,10.375,11.561327261887438,1.0590985312361167
46.0,123.21666666666667,8133.0,252.445,242.437,10.007999999999981,11.171858195905084,1.023420437674697
47.0,126.21666666666667,8313.0,250.113,240.401,9.711999999999989,10.860122778608323,0.9948632906348702
48.0,129.21666666666667,8493.0,252.369,242.277,10.092000000000013,11.304226215434289,1.03554627512315
49.0,132.21666666666667,8673.0,250.671,240.914,9.757000000000005,10.947304747607527,1.002849769455664
50.0,135.21666666666667,8853.0,248.337,238.444,9.893,11.11824291819216,1.018508902814442
51.0,138.21666666666667,9033.0,250.314,240.318,9.995999999999981,11.252311732655548,1.0307905449880728
52.0,141.21666666666667,9213.0,248.142,238.221,9.920999999999992,11.185839816801991,1.0247012520501388
53.0,144.21666666666667,9393.0,249.285,239.337,9.948000000000008,11.234066926533682,1.0291191929945993
54.0,147.21666666666667,9573.0,246.711,236.563,10.148000000000025,11.477845688196316,1.0514510345362342
55.0,150.21666666666667,9753.0,245.638,235.852,9.786000000000001,11.085482407575102,1.015507810648195
56.0,153.21666666666667,9933.0,245.4,235.866,9.533999999999992,10.816454405491015,0.9908629618852054
57.0,156.21666666666667,10113.0,245.742,235.919,9.822999999999979,11.161058779854471,1.0224311355454236
58.0,159.21666666666667,10293.0,245.836,235.725,10.111000000000018,11.50530337392536,1.0539663508116102
59.0,162.21666666666667,10473.0,245.254,235.342,9.911999999999978,11.295341355739634,1.0347323597620763
60.0,165.21666666666667,10653.0,245.878,236.084,9.793999999999983,11.176962860608288,1.0238880607050942
61.0,168.21666666666667,10833.0,245.726,235.262,10.463999999999999,11.95855667447112,1.0954875268852617
62.0,171.21666666666667,11013.0,244.345,234.905,9.439999999999998,10.803443046132667,0.9896710302606039
63.0,174.21666666666667,11193.0,244.561,234.364,10.197000000000003,11.685942416345382,1.0705141519573855
64.0,177.21666666666667,11373.0,242.484,232.064,10.420000000000016,11.957827522788282,1.0954207314854907
65.0,180.21666666666667,11553.0,243.474,233.5,9.97399999999999,11.461446314116309,1.0499487370397709
66.0,183.21666666666667,11733.0,244.061,233.744,10.317000000000007,11.871384541381877,1.087501949102693
67.0,186.21666666666667,11913.0,241.54,231.543,9.996999999999986,11.518290764090345,1.055156086690264
68.0,189.21666666666667,12093.0,242.516,232.376,10.139999999999986,11.698208461550118,1.0716378075867212
69.0,192.21666666666667,12273.0,239.956,229.98,9.975999999999999,11.52374607281724,1.05565583116849
70.0,195.21666666666667,12453.0,241.424,231.648,9.77600000000001,11.306994498063702,1.0357998691959103
71.0,198.21666666666667,12633.0,241.488,231.421,10.067000000000007,11.65810173018191,1.0679637501603927
72.0,201.21666666666667,12813.0,239.921,229.682,10.239000000000004,11.871900786829213,1.0875492408004925
73.0,204.21666666666667,12993.0,239.712,229.621,10.09099999999998,11.714537477274941,1.0731336597651906
74.0,207.21666666666667,13173.0,238.88,228.596,10.283999999999992,11.952937064612929,1.0949727312729491
75.0,210.21666666666667,13353.0,238.303,228.002,10.300999999999988,11.986905877960472,1.0980845124300154
76.0,213.21666666666667,13533.0,238.232,228.077,10.155000000000001,11.830862666451486,1.0837898616191746
77.0,216.21666666666667,13713.0,240.61,230.176,10.434000000000026,12.169979396075698,1.114855328596014
78.0,219.21666666666667,13893.0,241.073,230.95,10.123000000000019,11.820739120747733,1.0828624739462132
79.0,222.21666666666667,14073.0,242.018,231.234,10.783999999999992,12.60682228149773,1.1548731957362866
80.0,225.21666666666667,14253.0,239.196,229.144,10.051999999999992,11.764207214966024,1.0776837555322158
81.0,228.21666666666667,14433.0,238.955,228.909,10.04600000000002,11.770149495976392,1.078228110081457
82.0,231.21666666666667,14613.0,240.437,230.537,9.900000000000006,11.611729477571968,1.0637157271162563
83.0,234.21666666666667,14793.0,240.134,230.124,10.009999999999991,11.753388592359876,1.0766926939479684
84.0,237.21666666666667,14973.0,239.591,229.53,10.061000000000007,11.825839053775686,1.0833296635220255
85.0,240.21666666666667,15153.0,238.672,228.666,10.006,11.773557397665519,1.0785402977387901
86.0,243.21666666666667,15333.0,236.508,226.559,9.949000000000012,11.718653733539826,1.073510737661662
87.0,246.21666666666667,15513.0,237.568,227.675,9.893,11.664662368544066,1.068564750572883
88.0,249.21666666666667,15693.0,237.629,227.361,10.268,12.11911146308431,1.110195469749548
89.0,252.21666666666667,15873.0,235.561,225.557,10.004000000000019,11.819370200073475,1.0827370712270752
90.0,255.21666666666667,16053.0,235.981,225.768,10.212999999999994,12.078271434795415,1.1064542371906358
91.0,258.2166666666667,16233.0,237.397,227.684,9.712999999999994,11.498224953704062,1.0533179179552405
92.0,261.2166666666667,16413.0,237.406,227.475,9.931000000000012,11.767700311171838,1.0780037476038216
93.0,264.2166666666667,16593.0,235.213,225.15,10.062999999999988,11.935555303515528,1.0933804402468799
94.0,267.2166666666667,16773.0,236.525,226.606,9.919000000000011,11.775924292820852,1.078757121908353
95.0,270.2166666666667,16953.0,234.478,224.37,10.108000000000004,12.011570890822448,1.1003440003160778
96.0,273.2166666666667,17133.0,234.002,223.829,10.173000000000002,12.100036109853527,1.1084480338252893
97.0,276.2166666666667,17313.0,233.453,223.342,10.11099999999999,12.037337717243359,1.1027044220391928
98.0,279.2166666666667,17493.0,233.012,222.764,10.24799999999999,12.21152521987613,1.1186612169658627
99.0,282.2166666666667,17673.0,234.851,224.345,10.506,12.530213596194482,1.1478553037376689
100.0,285.2166666666667,17853.0,232.94,222.876,10.063999999999993,12.013730663319254,1.1005418505998175
101.0,288.2166666666667,18033.0,232.978,222.663,10.314999999999998,12.324197742156072,1.1289828089556282
102.0,291.2166666666667,18213.0,232.747,222.659,10.088000000000022,12.063482907507106,1.105099504539669
103.0,294.2166666666667,18393.0,232.052,222.34,9.711999999999989,11.623867526384899,1.0648276573798539
104.0,297.2166666666667,18573.0,233.961,223.972,9.989000000000004,11.965601243492534,1.096132858734691
105.0,300.2166666666667,18753.0,231.687,221.701,9.986000000000018,11.972114881100088,1.096729553548954
106.0,303.2166666666667,18933.0,231.962,221.745,10.216999999999985,12.259304836217522,1.1230381643823597
107.0,306.2166666666667,19113.0,231.307,221.117,10.189999999999998,12.237034251443578,1.1209980228752847
108.0,309.2166666666667,19293.0,231.007,220.736,10.271000000000015,12.344421213379903,1.1308354205273345
109.0,312.2166666666667,19473.0,234.313,224.648,9.664999999999992,11.625520568534354,1.0649790876155787
110.0,315.2166666666667,19653.0,232.994,222.823,10.170999999999992,12.24400090275942,1.1216362169172929
111.0,318.2166666666667,19833.0,233.08,222.945,10.13500000000002,12.210382356437657,1.1185565226724075
112.0,321.2166666666667,20013.0,230.668,220.616,10.051999999999992,12.119941639995789,1.1102715197676554
113.0,324.2166666666667,20193.0,230.613,220.425,10.187999999999988,12.293521642559089,1.1261726634341604
114.0,327.2166666666667,20373.0,231.628,221.903,9.724999999999994,11.743921943563953,1.0758254826314493
115.0,330.2166666666667,20553.0,229.442,219.475,9.967000000000013,12.045396003637634,1.1034426174981686
116.0,333.2166666666667,20733.0,229.034,218.944,10.090000000000003,12.203315296157841,1.1179091304662214
117.0,336.2166666666667,20913.0,230.377,220.24,10.137,12.269395751131645,1.1239625628465055
118.0,339.2166666666667,21093.0,230.079,219.802,10.277000000000015,12.448133110321907,1.14033615649258
119.0,342.2166666666667,21273.0,229.867,219.56,10.306999999999988,12.493709768171454,1.1445112974857974
120.0,345.2166666666667,21453.0,227.957,217.872,10.08499999999998,12.233577964688099,1.1206814028070746
121.0,348.2166666666667,21633.0,229.731,219.648,10.082999999999998,12.240046028553218,1.1212739227474167
122.0,351.2166666666667,21813.0,229.7,219.603,10.09699999999998,12.265877463880733,1.1236402630987774
123.0,354.2166666666667,21993.0,227.876,217.686,10.189999999999998,12.387702634843324,1.134800301796013
124.0,357.2166666666667,22173.0,227.107,217.19,9.917000000000002,12.064369036015547,1.1051806801158393
125.0,360.2166666666667,22353.0,229.142,219.087,10.055000000000007,12.24084861414931,1.1213474452078365
126.0,363.2166666666667,22533.0,229.475,219.609,9.865999999999985,12.019134706794802,1.1010368988220536
127.0,366.2166666666667,22713.0,227.227,217.4,9.826999999999998,11.979900803283398,1.0974427985390725
128.0,369.2166666666667,22893.0,227.15,217.16,9.990000000000009,12.186963486702194,1.1164111902224036
129.0,372.2166666666667,23073.0,226.62,216.771,9.849000000000018,12.023129970742911,1.1014028929751032
130.0,375.2166666666667,23253.0,226.283,216.754,9.528999999999996,11.640343218489628,1.0663369461417713
131.0,378.2166666666667,23433.0,227.928,218.148,9.780000000000001,11.954958797230123,1.0951579361371415
132.0,381.2166666666667,23613.0,225.9,215.829,10.070999999999998,12.318855291343668,1.1284934030526166
133.0,384.2166666666667,23793.0,227.252,217.421,9.831000000000017,12.033217971495938,1.1023270244816874
134.0,387.2166666666667,23973.0,227.106,217.468,9.638000000000005,11.804706183349765,1.081393744615666
135.0,390.2166666666667,24153.0,225.352,215.587,9.765000000000015,11.96802709389964,1.0963550836181293
136.0,393.2166666666667,24333.0,226.724,216.86,9.863999999999976,12.097158172254618,1.1081843945895036
137.0,396.2166666666667,24513.0,224.885,214.68,10.204999999999984,12.52337100957753,1.1472284748907977
138.0,399.2166666666667,24693.0,225.762,216.2,9.562000000000012,11.741752475250093,1.075626744142976
139.0,402.2166666666667,24873.0,226.095,216.271,9.824000000000012,12.07109084206096,1.1057964446166348
140.0,405.2166666666667,25053.0,226.038,216.32,9.718000000000018,11.948327515412705,1.0945504642894937
141.0,408.2166666666667,25233.0,226.253,216.675,9.577999999999975,11.783525032865617,1.0794534029179093
142.0,411.2166666666667,25413.0,224.084,214.509,9.575000000000017,11.787114428483184,1.0797822166899338
143.0,414.2166666666667,25593.0,223.876,214.268,9.608000000000004,11.834998744919204,1.0841687553682235
144.0,417.2166666666667,25773.0,224.581,214.355,10.225999999999999,12.603922768654144,1.1546075800570155
145.0,420.2166666666667,25953.0,225.508,216.147,9.361000000000018,11.544766820275457,1.057581478825907
146.0,423.2166666666667,26133.0,225.283,215.941,9.341999999999985,11.528267466337311,1.056070022474365
147.0,426.2166666666667,26313.0,224.826,215.475,9.350999999999999,11.546272866688442,1.0577194432228862
148.0,429.2166666666667,26493.0,224.39,215.166,9.22399999999999,11.396224151095877,1.0439739302122972
149.0,432.2166666666667,26673.0,224.473,215.16,9.313000000000017,11.512976058374022,1.0546692224323284
150.0,435.2166666666667,26853.0,225.027,215.782,9.244999999999976,11.43561791632558,1.0475826749480488
151.0,438.2166666666667,27033.0,224.556,215.435,9.12100000000001,11.2888146227024,1.0341344653147588
152.0,441.2166666666667,27213.0,223.84,214.5,9.340000000000003,11.566564894284335,1.0595783350383148
153.0,444.2166666666667,27393.0,223.892,214.172,9.719999999999999,12.044088155222973,1.1033228094256462
154.0,447.2166666666667,27573.0,223.736,214.137,9.59899999999999,11.900968900287461,1.090212083532306
155.0,450.2166666666667,27753.0,223.501,214.384,9.117000000000019,11.309815212647568,1.0360582664028346
156.0,453.2166666666667,27933.0,223.396,214.119,9.276999999999987,11.514813866361857,1.0548375785126052
157.0,456.2166666666667,28113.0,222.993,213.517,9.475999999999999,11.768438470595628,1.0780713681757375
158.0,459.2166666666667,28293.0,223.18,213.645,9.534999999999997,11.848341104510606,1.0853910089318832
159.0,462.2166666666667,28473.0,221.525,211.56,9.965000000000003,12.389559951087088,1.1349704449691327
160.0,465.2166666666667,28653.0,222.681,213.007,9.674000000000007,12.034417637859159,1.1024369223207917
161.0,468.2166666666667,28833.0,220.712,211.176,9.536000000000001,11.869279893491345,1.0873091486188782
162.0,471.2166666666667,29013.0,220.964,211.214,9.75,12.142290451864703,1.112318827424387
163.0,474.2166666666667,29193.0,222.428,212.816,9.611999999999995,11.976954522237483,1.0971728985649905
164.0,477.2166666666667,29373.0,221.163,211.531,9.632000000000005,12.008383157499184,1.1000519816227077
165.0,480.2166666666667,29553.0,222.983,213.138,9.844999999999999,12.280555679975903,1.1249848904720383
166.0,483.2166666666667,29733.0,220.511,210.803,9.707999999999998,12.116163761125014,1.1099254396098508
167.0,486.2166666666667,29913.0,221.843,212.375,9.46799999999999,11.82294150758235,1.083064228001688
168.0,489.2166666666667,30093.0,219.695,210.302,9.393,11.735522128147814,1.0750560007226364
169.0,492.2166666666667,30273.0,221.887,211.937,9.949999999999989,12.438009294642212,1.1394087440879321
170.0,495.2166666666667,30453.0,219.079,209.829,9.25,11.569062075407354,1.0598070943147984
171.0,498.2166666666667,30633.0,218.763,209.375,9.388000000000005,11.747814030437805,1.0761820250420364
172.0,501.2166666666667,30813.0,220.498,210.935,9.562999999999988,11.973046319066825,1.0968148797887673
173.0,504.2166666666667,30993.0,220.362,210.411,9.950999999999993,12.465300119003192,1.1419087746936065
174.0,507.2166666666667,31173.0,218.093,208.881,9.211999999999989,11.545545288620147,1.057652791977226
175.0,510.2166666666667,31353.0,218.426,208.734,9.691999999999979,12.153390496248731,1.113335669214043
176.0,513.2166666666666,31533.0,218.741,208.722,10.019000000000005,12.569875875483167,1.1514886462413967
177.0,516.2166666666666,31713.0,219.938,210.469,9.468999999999994,11.885907662781946,1.0888323687158874
178.0,519.2166666666666,31893.0,219.79,210.257,9.532999999999987,11.972325804081573,1.0967488755709704
179.0,522.2166666666666,32073.0,218.233,208.305,9.927999999999997,12.474711014532193,1.1427708786204833
180.0,525.2166666666666,32253.0,219.57,209.835,9.734999999999985,12.23837011059483,1.121120396927414
181.0,528.2166666666666,32433.0,217.919,207.956,9.963000000000022,12.53129018056169,1.147953926404101
182.0,531.2166666666666,32613.0,218.371,208.524,9.847000000000008,12.391582373820318,1.1351557130527863
183.0,534.2166666666666,32793.0,217.681,208.41,9.271000000000015,11.672550081311035,1.069287320293217
184.0,537.2166666666666,32973.0,220.147,209.98,10.167000000000002,12.80700266552511,1.173211120604531
185.0,540.2166666666666,33153.0,218.09,208.402,9.688000000000017,12.209658321417097,1.1184901959947284
186.0,543.2166666666666,33333.0,219.529,209.892,9.637,12.1513673974736,1.1131503392002176
187.0,546.2166666666666,33513.0,217.29,207.56,9.72999999999999,12.274654287885312,1.1244442816341589
188.0,549.2166666666666,33693.0,218.795,208.984,9.810999999999979,12.38289182319019,1.134359597762603
189.0,552.2166666666666,33873.0,218.639,209.154,9.485000000000014,11.977267958932483,1.0972016115609806
190.0,555.2166666666666,34053.0,216.805,207.615,9.189999999999998,11.610390764008436,1.0635930915799752
191.0,558.2166666666666,34233.0,218.548,209.106,9.442000000000007,11.9345348719056,1.093286961566204
192.0,561.2166666666666,34413.0,218.711,209.318,9.393,11.878327514757796,1.0881379740796078
193.0,564.2166666666666,34593.0,219.226,210.065,9.161000000000001,11.59051242949546,1.0617720969476794
194.0,567.2166666666666,34773.0,218.59,209.227,9.363,11.851760864324195,1.0857042828764494
