"Frame","Time (aligned)","Time [ s]","Intensity Ch3-T2","background","Intensity (bg-subst)","bleach-Corrected","Normalized"
1.0,-12.333333333333334,0.0,269.22,259.583,9.637,9.637,0.9416552975794295
2.0,-9.333333333333334,180.0,264.685,254.16,10.525000000000006,10.559954833992439,1.0318395155783422
3.0,-6.333333333333333,360.0,261.514,251.282,10.232,10.299578751715094,1.0063975193928656
4.0,-3.3333333333333335,540.0,263.114,252.847,10.266999999999967,10.368138162425211,1.0130966303500208
5.0,-0.3333333333333333,720.0,260.932,250.759,10.17300000000003,10.305857556870775,1.0070110370993421
6.0,3.2166666666666663,933.0,280.754,270.644,10.110000000000014,10.27410507930179,1.0039084233487865
7.0,6.216666666666667,1113.0,277.388,267.366,10.021999999999991,10.21610068700319,0.9982406695570615
8.0,9.216666666666667,1293.0,274.464,264.44,10.024000000000001,10.249205126217582,1.0014753868507866
9.0,12.216666666666667,1473.0,273.545,263.89,9.65500000000003,9.901488489078167,0.9674991272867278
10.0,15.216666666666667,1653.0,270.864,260.744,10.119999999999948,10.408994992346072,1.017088853068427
11.0,18.21666666666667,1833.0,270.941,261.038,9.902999999999963,10.21542441423317,0.9981745892585767
12.0,21.21666666666667,2013.0,267.409,257.598,9.810999999999979,10.149526960512784,0.991735584755848
13.0,24.21666666666667,2193.0,264.848,255.185,9.663000000000011,10.024649708878481,0.9795335171467787
14.0,27.21666666666667,2373.0,263.224,253.592,9.631999999999977,10.020294321210498,0.9791079413586115
15.0,30.21666666666667,2553.0,262.799,252.937,9.861999999999966,10.287695966682127,1.0052364228403814
16.0,33.21666666666666,2733.0,264.895,254.647,10.24799999999999,10.71923916485147,1.0474035846843712
17.0,36.21666666666666,2913.0,262.403,252.665,9.738000000000028,10.212902772311676,0.99792819333931
18.0,39.21666666666666,3093.0,262.121,251.739,10.381999999999977,10.916870360895452,1.0667146215964574
19.0,42.21666666666666,3273.0,260.443,250.949,9.493999999999971,10.008924872822092,0.9779970042095507
20.0,45.21666666666666,3453.0,261.278,251.615,9.663000000000011,10.213036378572404,0.9979412483401614
21.0,48.21666666666666,3633.0,260.144,250.847,9.296999999999997,9.85086347370178,0.962552430812803
22.0,51.21666666666666,3813.0,260.041,249.985,10.055999999999983,10.681430582711027,1.0437092138566744
23.0,54.21666666666666,3993.0,257.248,247.604,9.643999999999977,10.268769617819371,1.0033870821046285
24.0,57.21666666666666,4173.0,258.388,248.818,9.569999999999965,10.214445628269205,0.9980789496416665
25.0,60.21666666666666,4353.0,258.057,247.753,10.30400000000003,11.02389859135513,1.0771726168442428
26.0,63.21666666666666,4533.0,254.597,245.426,9.17100000000002,9.834620970398872,0.9609653353182367
27.0,66.21666666666667,4713.0,254.822,245.242,9.580000000000013,10.29682488063654,1.006128431783654
28.0,69.21666666666667,4893.0,255.045,244.999,10.045999999999992,10.822146700973985,1.057458936614496
29.0,72.21666666666667,5073.0,256.299,246.235,10.063999999999965,10.865733901021402,1.0617179506055
30.0,75.21666666666667,5253.0,253.94,243.843,10.097000000000008,10.925340497659075,1.067542259777913
31.0,78.21666666666667,5433.0,252.152,242.778,9.373999999999995,10.165013924366956,0.9932488546071194
32.0,81.21666666666667,5613.0,254.037,244.129,9.908000000000015,10.767028594757678,1.0520732090321434
33.0,84.21666666666667,5793.0,251.461,241.839,9.622000000000014,10.478248982097336,1.0238558330754612
34.0,87.21666666666667,5973.0,252.995,242.996,9.998999999999995,10.911395299859175,1.0661796397318335
35.0,90.21666666666667,6153.0,252.583,242.848,9.734999999999985,10.64503555543579,1.0401529649992214
36.0,93.21666666666667,6333.0,252.684,242.549,10.134999999999991,11.104771862434173,1.0850749457997433
37.0,96.21666666666667,6513.0,249.679,240.279,9.400000000000006,10.319911267044606,1.0083842601600286
38.0,99.21666666666667,6693.0,248.865,239.527,9.338000000000022,10.27192640688763,1.0036955398351946
39.0,102.21666666666667,6873.0,248.68,238.79,9.890000000000015,10.9001416261369,1.0650800152140572
40.0,105.21666666666667,7053.0,248.373,238.668,9.704999999999984,10.716607046829626,1.0471463938698933
41.0,108.21666666666667,7233.0,249.998,239.909,10.088999999999999,11.161539489295869,1.090621852157046
42.0,111.21666666666667,7413.0,249.591,239.752,9.838999999999999,10.905099617693146,1.0655644729305969
43.0,114.21666666666667,7593.0,248.636,238.974,9.662000000000006,10.728452585700694,1.048303851007034
44.0,117.21666666666667,7773.0,248.613,238.287,10.325999999999993,11.486359802466847,1.1223608548195823
45.0,120.21666666666667,7953.0,247.535,237.841,9.693999999999988,10.802458455589079,1.0555351490699552
46.0,123.21666666666667,8133.0,246.233,236.823,9.409999999999997,10.504315110258494,1.0264028194478114
47.0,126.21666666666667,8313.0,244.222,234.395,9.826999999999998,10.988717725018954,1.0737350066793685
48.0,129.21666666666667,8493.0,245.524,235.568,9.955999999999989,11.15189022997062,1.089678998970231
49.0,132.21666666666667,8673.0,245.894,235.787,10.107,11.340002980841366,1.1080599648724492
50.0,135.21666666666667,8853.0,244.133,234.185,9.948000000000008,11.18005463966195,1.0924310136624629
51.0,138.21666666666667,9033.0,245.754,236.067,9.686999999999983,10.904476165889786,1.065503553900461
52.0,141.21666666666667,9213.0,245.696,235.597,10.09899999999999,11.386533243612869,1.1126065528600542
53.0,144.21666666666667,9393.0,242.468,233.19,9.277999999999992,10.477450034617947,1.0237777659252636
54.0,147.21666666666667,9573.0,243.032,233.038,9.994,11.303664742592995,1.1045092650124013
55.0,150.21666666666667,9753.0,244.386,234.288,10.097999999999985,11.438912870600163,1.1177246968091898
56.0,153.21666666666667,9933.0,244.042,233.924,10.117999999999995,11.479010454663115,1.1216427317218198
57.0,156.21666666666667,10113.0,243.348,233.145,10.203000000000003,11.592821208475563,1.1327634642370217
58.0,159.21666666666667,10293.0,240.728,230.665,10.063000000000017,11.45068419066471,1.1188749018416981
59.0,162.21666666666667,10473.0,240.376,230.546,9.830000000000013,11.201897248478712,1.094565309429326
60.0,165.21666666666667,10653.0,239.939,230.196,9.742999999999995,11.11876139992921,1.0864418983879853
61.0,168.21666666666667,10833.0,241.497,232.009,9.488000000000028,10.84315612838134,1.0595118201485052
62.0,171.21666666666667,11013.0,240.112,230.374,9.738,11.144483938902535,1.088955311804134
63.0,174.21666666666667,11193.0,241.683,231.75,9.932999999999993,11.383393745372027,1.1122997846593454
64.0,177.21666666666667,11373.0,240.901,230.859,10.042000000000002,11.524040689428,1.1260427482329332
65.0,180.21666666666667,11553.0,237.63,228.004,9.626000000000005,11.061548247411647,1.0808514586080347
66.0,183.21666666666667,11733.0,238.484,228.855,9.629000000000019,11.079728772798898,1.0826279230724616
67.0,186.21666666666667,11913.0,236.2,226.498,9.701999999999998,11.178399219086193,1.0922692583906062
68.0,189.21666666666667,12093.0,236.079,226.365,9.713999999999999,11.206745265828204,1.095039021291929
69.0,192.21666666666667,12273.0,237.544,227.99,9.554000000000002,11.03627405570328,1.078381854320993
70.0,195.21666666666667,12453.0,236.395,226.217,10.177999999999997,11.771950695713196,1.1502666530520058
71.0,198.21666666666667,12633.0,235.446,225.611,9.835000000000008,11.389433844873258,1.1128899778411698
72.0,201.21666666666667,12813.0,235.62,226.27,9.349999999999994,10.841124363400041,1.0593132913264571
73.0,204.21666666666667,12993.0,233.612,223.953,9.658999999999992,11.213033147656207,1.0956534259026887
74.0,207.21666666666667,13173.0,233.969,223.785,10.183999999999997,11.836708582848903,1.156594307662506
75.0,210.21666666666667,13353.0,235.711,226.137,9.574000000000012,11.140921937248214,1.0886072597414818
76.0,213.21666666666667,13533.0,236.414,226.198,10.21599999999998,11.901929394433099,1.1629671957750605
77.0,216.21666666666667,13713.0,233.672,223.783,9.88900000000001,11.534303838201303,1.1270455860883057
78.0,219.21666666666667,13893.0,233.171,222.784,10.387,12.129014842162055,1.1851562810564933
79.0,222.21666666666667,14073.0,234.493,224.376,10.11699999999999,11.827079100696634,1.1556533869525725
80.0,225.21666666666667,14253.0,232.423,222.697,9.725999999999999,11.382678011615562,1.1122298485294884
81.0,228.21666666666667,14433.0,234.632,224.847,9.784999999999997,11.464355247673574,1.1202107349075805
82.0,231.21666666666667,14613.0,235.488,225.146,10.342000000000013,12.130152147176704,1.1852674099650755
83.0,234.21666666666667,14793.0,235.545,226.093,9.451999999999998,11.098204692805758,1.0844332512816672
84.0,237.21666666666667,14973.0,234.739,224.971,9.768,11.481442786729037,1.1218804009524255
85.0,240.21666666666667,15153.0,234.682,224.822,9.859999999999985,11.601766534177676,1.1336375343144283
86.0,243.21666666666667,15333.0,233.669,223.444,10.225000000000023,12.043746549949224,1.1768245036280651
87.0,246.21666666666667,15513.0,234.7,224.667,10.032999999999987,11.829733907166931,1.1559127947119168
88.0,249.21666666666667,15693.0,234.519,224.083,10.436000000000007,12.317398444560572,1.2035637125367944
89.0,252.21666666666667,15873.0,233.992,224.178,9.813999999999993,11.59489195756905,1.1329658022938691
90.0,255.21666666666667,16053.0,231.908,221.569,10.338999999999999,12.227283693757942,1.194758375556059
91.0,258.2166666666667,16233.0,233.126,222.841,10.284999999999997,12.175357114058098,1.1896844999869463
92.0,261.2166666666667,16413.0,232.203,221.911,10.292000000000002,12.195465874794122,1.1916493771349004
93.0,264.2166666666667,16593.0,231.335,221.554,9.781000000000006,11.60107983938046,1.1335704356536813
94.0,267.2166666666667,16773.0,231.534,221.735,9.798999999999978,11.633459234333214,1.1367343070648754
95.0,270.2166666666667,16953.0,231.744,221.603,10.140999999999991,12.050785556374187,1.1775123024959453
96.0,273.2166666666667,17133.0,231.536,221.584,9.951999999999998,11.837172846285487,1.1566396720004257
97.0,276.2166666666667,17313.0,231.54,221.607,9.932999999999993,11.825425333337783,1.1554917932206614
98.0,279.2166666666667,17493.0,231.916,221.97,9.945999999999998,11.851661771749422,1.1580554210322143
99.0,282.2166666666667,17673.0,231.367,221.683,9.683999999999997,11.54983708981033,1.1285633788315117
100.0,285.2166666666667,17853.0,230.95,221.189,9.760999999999996,11.65202951159174,1.1385488551563987
101.0,288.2166666666667,18033.0,229.55,219.908,9.642000000000024,11.520108059124494,1.1256584811208943
102.0,291.2166666666667,18213.0,228.689,218.942,9.746999999999986,11.655706572112544,1.138908149907767
103.0,294.2166666666667,18393.0,227.944,218.696,9.24799999999999,11.068526244234715,1.0815332960756008
104.0,297.2166666666667,18573.0,228.204,218.382,9.822000000000003,11.7655556525762,1.149641777442563
105.0,300.2166666666667,18753.0,226.076,216.516,9.560000000000002,11.461387769208558,1.1199207751880582
106.0,303.2166666666667,18933.0,226.332,216.658,9.674000000000007,11.60776304057635,1.1342234679055125
107.0,306.2166666666667,19113.0,228.744,218.351,10.393,12.480814227208356,1.2195314760979
108.0,309.2166666666667,19293.0,228.521,218.786,9.734999999999985,11.700218139641027,1.1432574861500373
109.0,312.2166666666667,19473.0,227.084,216.858,10.225999999999999,12.300317985911267,1.2018947383360883
110.0,315.2166666666667,19653.0,225.993,215.949,10.043999999999983,12.091116416017648,1.1814531313471643
111.0,318.2166666666667,19833.0,226.942,217.316,9.626000000000005,11.597152497589414,1.1331866852953807
112.0,321.2166666666667,20013.0,226.777,216.498,10.278999999999996,12.39364107814532,1.2110135703573282
113.0,324.2166666666667,20193.0,224.588,214.629,9.959000000000003,12.017194938971942,1.1742300795193148
114.0,327.2166666666667,20373.0,225.863,215.969,9.894000000000005,11.948006551117931,1.167469509637224
115.0,330.2166666666667,20553.0,225.451,216.047,9.403999999999996,11.364994884941117,1.1105019861334358
116.0,333.2166666666667,20733.0,223.682,214.157,9.524999999999977,11.519978017433411,1.1256457744230304
117.0,336.2166666666667,20913.0,223.425,213.824,9.600999999999999,11.620644037349798,1.1354821022159642
118.0,339.2166666666667,21093.0,225.959,215.689,10.27000000000001,12.439654280724522,1.2155096351043762
119.0,342.2166666666667,21273.0,223.859,214.053,9.806000000000012,11.886418743251147,1.161451611375933
120.0,345.2166666666667,21453.0,223.688,213.841,9.84699999999998,11.944872803002847,1.1671633032956397
121.0,348.2166666666667,21633.0,225.629,215.271,10.358000000000004,12.573876501413697,1.2286248229392662
122.0,351.2166666666667,21813.0,223.377,213.311,10.066000000000003,12.228218535349482,1.1948497212587748
123.0,354.2166666666667,21993.0,224.512,214.953,9.558999999999997,11.62061329602231,1.135479098404209
124.0,357.2166666666667,22173.0,225.509,215.292,10.216999999999985,12.429329277096969,1.2145007532569743
125.0,360.2166666666667,22353.0,225.741,215.816,9.925000000000011,12.082588015458176,1.1806198000649493
126.0,363.2166666666667,22533.0,225.865,215.652,10.213000000000022,12.441863243512644,1.2157254783659297
127.0,366.2166666666667,22713.0,222.798,212.886,9.912000000000006,12.083522617497215,1.1807111223603928
128.0,369.2166666666667,22893.0,224.113,214.075,10.038000000000011,12.245519467419083,1.196540238467076
129.0,372.2166666666667,23073.0,221.844,212.084,9.759999999999991,11.914483553096812,1.1641938939189163
130.0,375.2166666666667,23253.0,221.712,212.205,9.506999999999977,11.613468672282576,1.1347809794051706
131.0,378.2166666666667,23433.0,221.659,211.86,9.798999999999978,11.978184177306513,1.1704182407328814
132.0,381.2166666666667,23613.0,221.348,211.727,9.62100000000001,11.768414929800175,1.1499211645490488
133.0,384.2166666666667,23793.0,221.597,211.579,10.018,12.26210737854197,1.1981610846209252
134.0,387.2166666666667,23973.0,221.484,211.254,10.230000000000018,12.529792929619035,1.2243173072272535
135.0,390.2166666666667,24153.0,221.025,211.225,9.800000000000011,12.010923248358056,1.1736172569924554
136.0,393.2166666666667,24333.0,221.378,211.017,10.36099999999999,12.706676381055383,1.2416010302841356
137.0,396.2166666666667,24513.0,220.599,210.739,9.859999999999985,12.099993939680006,1.1823205763182183
138.0,399.2166666666667,24693.0,223.056,213.053,10.003000000000014,12.283282787066168,1.2002301865836957
139.0,402.2166666666667,24873.0,221.993,211.91,10.082999999999998,12.389333159660067,1.2105926329013585
140.0,405.2166666666667,25053.0,223.38,213.385,9.995000000000005,12.288900341279051,1.2007790918118788
141.0,408.2166666666667,25233.0,222.611,212.289,10.322000000000003,12.698845833079897,1.240835887917832
142.0,411.2166666666667,25413.0,221.463,212.149,9.313999999999993,11.465815539101003,1.1203534236238457
143.0,414.2166666666667,25593.0,219.659,209.959,9.699999999999989,11.948323045973783,1.1675004351386944
144.0,417.2166666666667,25773.0,220.913,211.363,9.550000000000011,11.770727795877882,1.150147160460086
145.0,420.2166666666667,25953.0,219.965,209.522,10.443000000000012,12.879179564591016,1.258456746443277
146.0,423.2166666666667,26133.0,220.841,211.251,9.590000000000003,11.834305823397028,1.156359528045751
147.0,426.2166666666667,26313.0,219.503,209.166,10.336999999999989,12.763749612122586,1.2471777979903103
148.0,429.2166666666667,26493.0,219.758,209.748,10.01000000000002,12.367324778021475,1.2084421390587592
149.0,432.2166666666667,26673.0,221.158,211.308,9.849999999999994,12.176829611831188,1.1898283814156798
150.0,435.2166666666667,26853.0,221.347,211.489,9.858000000000004,12.19386927194569,1.1914933690898288
151.0,438.2166666666667,27033.0,221.485,211.655,9.830000000000013,12.16632471671578,1.1888019219224826
152.0,441.2166666666667,27213.0,220.327,210.076,10.251000000000005,12.694738408063033,1.2404345411785418
153.0,444.2166666666667,27393.0,221.187,211.326,9.861000000000018,12.21880177969691,1.1939295865855095
154.0,447.2166666666667,27573.0,218.689,208.761,9.927999999999997,12.308867511413064,1.2027301337890879
155.0,450.2166666666667,27753.0,219.931,210.012,9.919000000000011,12.304711757623245,1.2023240647248958
156.0,453.2166666666667,27933.0,219.312,209.941,9.37100000000001,11.631488707737114,1.1365417619981286
157.0,456.2166666666667,28113.0,217.546,207.705,9.84099999999998,12.221739445877095,1.194216633272351
158.0,459.2166666666667,28293.0,218.677,209.19,9.486999999999995,11.788695548871747,1.1519028344034574
159.0,462.2166666666667,28473.0,219.309,209.028,10.281000000000006,12.782445143715643,1.2490045849951528
160.0,465.2166666666667,28653.0,218.344,208.66,9.683999999999997,12.046857598204257,1.1771284919097271
161.0,468.2166666666667,28833.0,216.352,206.804,9.548000000000002,11.884216067853961,1.161236382471024
162.0,471.2166666666667,29013.0,218.538,208.791,9.747000000000014,12.138554362494915,1.1860884113727541
163.0,474.2166666666667,29193.0,218.693,208.75,9.943000000000012,12.389394383542186,1.2105986152395276
164.0,477.2166666666667,29373.0,216.884,206.879,10.004999999999995,12.473408792647344,1.2188078726232445
165.0,480.2166666666667,29553.0,217.946,208.5,9.445999999999998,11.782847024180027,1.151331360473917
166.0,483.2166666666667,29733.0,216.139,206.563,9.576000000000022,11.951419878093677,1.1678030343263475
167.0,486.2166666666667,29913.0,217.737,208.289,9.448000000000008,11.797966979682958,1.15280876902414
168.0,489.2166666666667,30093.0,216.386,206.058,10.328000000000003,12.90370196311196,1.2608528911435573
169.0,492.2166666666667,30273.0,216.615,206.701,9.914000000000016,12.393007451968163,1.2109516571637613
170.0,495.2166666666667,30453.0,216.817,207.091,9.725999999999999,12.164399756260748,1.1886138292369879
171.0,498.2166666666667,30633.0,216.62,206.765,9.855000000000018,12.33220145611043,1.205010151703138
172.0,501.2166666666667,30813.0,217.979,208.109,9.870000000000005,12.357415786802234,1.207473906821002
173.0,504.2166666666667,30993.0,217.747,207.783,9.964000000000027,12.481584804114986,1.219606771088698
174.0,507.2166666666667,31173.0,217.524,207.477,10.046999999999997,12.592063994221311,1.2304019682077085
175.0,510.2166666666667,31353.0,215.543,205.488,10.055000000000007,12.60857835738561,1.2320156278071497
176.0,513.2166666666666,31533.0,214.947,204.992,9.955000000000013,12.489581229707058,1.2203881217704946
177.0,516.2166666666666,31713.0,216.791,207.148,9.643,12.104320159700748,1.182743302062851
178.0,519.2166666666666,31893.0,216.472,206.543,9.929000000000002,12.469655188159669,1.218441098570029
179.0,522.2166666666666,32073.0,215.981,206.203,9.777999999999992,12.286233309840423,1.2005184895203986
180.0,525.2166666666666,32253.0,213.994,204.752,9.24199999999999,11.618594408024393,1.135281827824313
181.0,528.2166666666666,32433.0,216.366,206.726,9.640000000000015,12.125026331487966,1.1847665537341203
182.0,531.2166666666666,32613.0,216.213,206.571,9.641999999999996,12.133607926106974,1.1856050827405196
183.0,534.2166666666666,32793.0,216.293,206.544,9.748999999999995,12.274370698166438,1.199359364157118
184.0,537.2166666666666,32973.0,214.604,204.647,9.957000000000022,12.542473250775428,1.2255563330228254
185.0,540.2166666666666,33153.0,214.072,204.477,9.594999999999999,12.092451650908014,1.1815836004773943
186.0,543.2166666666666,33333.0,214.501,204.77,9.730999999999995,12.269892720225748,1.1989218097677548
187.0,546.2166666666666,33513.0,216.263,206.669,9.593999999999994,12.103086663717546,1.1826227740949018
188.0,549.2166666666666,33693.0,214.621,205.26,9.361000000000018,11.81492715899336,1.154465990430754
189.0,552.2166666666666,33873.0,214.508,204.854,9.653999999999996,12.190674209334105,1.191181171555918
190.0,555.2166666666666,34053.0,214.436,204.474,9.962000000000018,12.585714123074242,1.2297815064660271
191.0,558.2166666666666,34233.0,213.896,203.993,9.902999999999992,12.517231395518001,1.2230898884110284
192.0,561.2166666666666,34413.0,215.674,205.758,9.915999999999997,12.539709958089881,1.2252863248049042
193.0,564.2166666666666,34593.0,213.92,204.173,9.746999999999986,12.331920603677773,1.2049827089117038
194.0,567.2166666666666,34773.0,215.646,205.684,9.961999999999989,12.609979892171046,1.2321525752654299
