"Frame","Time (aligned)","Time [ s]","Intensity Ch3-T2","background","Intensity (bg-subst)","bleach-Corrected","Normalized"
1.0,-12.333333333333334,0.0,259.962,252.953,7.008999999999986,7.008999999999986,0.9590378976534781
2.0,-9.333333333333334,180.0,255.966,248.622,7.343999999999994,7.368390337372006,1.008213094342055
3.0,-6.333333333333333,360.0,257.479,250.053,7.425999999999988,7.475046111242784,1.022806749520488
4.0,-3.3333333333333335,540.0,256.078,249.141,6.936999999999983,7.005334998806248,0.9585364174081165
5.0,-0.3333333333333333,720.0,254.333,246.748,7.585000000000008,7.684058740672828,1.051405841075862
6.0,3.2166666666666663,933.0,274.543,266.849,7.694000000000017,7.818888672616029,1.0698545519435418
7.0,6.216666666666667,1113.0,273.473,266.502,6.971000000000004,7.1060105656654695,0.9723118039091494
8.0,9.216666666666667,1293.0,271.561,264.387,7.173999999999978,7.335175336740294,1.0036683027346367
9.0,12.216666666666667,1473.0,268.359,260.924,7.435000000000002,7.624812730843704,1.043299239747444
10.0,15.216666666666667,1653.0,267.577,260.269,7.307999999999993,7.516693221745594,1.028505302423892
11.0,18.21666666666667,1833.0,267.644,260.128,7.5160000000000196,7.753118236633038,1.0608552167098595
12.0,21.21666666666667,2013.0,262.964,255.869,7.094999999999999,7.339811821918087,1.0043027106383908
13.0,24.21666666666667,2193.0,260.748,253.47,7.277999999999992,7.550388138385328,1.0331157606940844
14.0,27.21666666666667,2373.0,260.721,253.748,6.973000000000013,7.254102190801611,0.9925751054972007
15.0,30.21666666666667,2553.0,258.228,250.913,7.314999999999998,7.630754004895557,1.0441121812478111
16.0,33.21666666666666,2733.0,259.94,252.433,7.507000000000005,7.852198322652236,1.0744122943807366
17.0,36.21666666666666,2913.0,257.437,250.113,7.324000000000012,7.6811768232091415,1.0510115097781612
18.0,39.21666666666666,3093.0,256.176,249.134,7.042000000000002,7.404796867792907,1.0131945813438699
19.0,42.21666666666666,3273.0,257.627,250.247,7.3799999999999955,7.780268123175397,1.0645701218476986
20.0,45.21666666666666,3453.0,257.494,249.977,7.517000000000024,7.944881968097788,1.0870941503480591
21.0,48.21666666666666,3633.0,256.617,249.7,6.91700000000003,7.329076330815912,1.0028337788625443
22.0,51.21666666666666,3813.0,254.152,246.996,7.1559999999999775,7.601065756750198,1.0400499533855854
23.0,54.21666666666666,3993.0,255.659,248.374,7.284999999999997,7.756945942120932,1.0613789597008634
24.0,57.21666666666666,4173.0,255.192,247.475,7.717000000000013,8.236664254268952,1.1270185718492887
25.0,60.21666666666666,4353.0,252.746,244.771,7.975000000000023,8.532180829392193,1.167453954204539
26.0,63.21666666666666,4533.0,254.24,246.169,8.070999999999998,8.655024081571158,1.1842625337894486
27.0,66.21666666666667,4713.0,251.756,243.668,8.087999999999994,8.693185765614631,1.1894841775668732
28.0,69.21666666666667,4893.0,253.118,245.205,7.9129999999999825,8.524352662234424,1.1663828300822012
29.0,72.21666666666667,5073.0,252.345,244.981,7.364000000000004,7.950642333776027,1.0878823382478697
30.0,75.21666666666667,5253.0,252.427,244.651,7.775999999999982,8.413929653342251,1.1512737060558749
31.0,78.21666666666667,5433.0,251.984,243.775,8.209000000000003,8.901706774602989,1.21801600094778
32.0,81.21666666666667,5613.0,250.491,243.094,7.39700000000002,8.038323628928405,1.0998797251741745
33.0,84.21666666666667,5793.0,250.118,242.189,7.929000000000002,8.634591163900403,1.1814667080788068
34.0,87.21666666666667,5973.0,247.22,240.021,7.199000000000012,7.8558990662752635,1.0749186652444807
35.0,90.21666666666667,6153.0,249.391,241.392,7.998999999999995,8.746752892442831,1.1968137402286871
36.0,93.21666666666667,6333.0,248.822,240.963,7.859000000000009,8.610991817155435,1.178237621491806
37.0,96.21666666666667,6513.0,248.627,240.742,7.885000000000019,8.656648972409242,1.1844848667746493
38.0,99.21666666666667,6693.0,246.054,237.97,8.084000000000003,8.892509431706943,1.216757533207015
39.0,102.21666666666667,6873.0,246.008,237.656,8.352000000000004,9.20505387881651,1.2595228306073902
40.0,105.21666666666667,7053.0,246.881,238.784,8.097000000000008,8.940996111095282,1.223391940835035
41.0,108.21666666666667,7233.0,243.943,236.201,7.742000000000019,8.565035060573777,1.1719493819119735
42.0,111.21666666666667,7413.0,245.934,237.922,8.012,8.88013600334968,1.2150644833113788
43.0,114.21666666666667,7593.0,243.455,235.787,7.668000000000006,8.514362909040875,1.1650159372443043
44.0,117.21666666666667,7773.0,242.644,235.321,7.3230000000000075,8.145904787281122,1.1146000002396212
45.0,120.21666666666667,7953.0,242.599,234.531,8.067999999999984,8.990533816762184,1.2301701598530637
46.0,123.21666666666667,8133.0,243.623,235.646,7.977000000000004,8.90466754883444,1.2184211221768224
47.0,126.21666666666667,8313.0,240.156,232.414,7.742000000000019,8.65723543574814,1.1845651122544023
48.0,129.21666666666667,8493.0,240.575,232.536,8.038999999999987,9.00462490545739,1.2320982363372839
49.0,132.21666666666667,8673.0,243.085,234.619,8.466000000000008,9.498809264450687,1.2997172303024946
50.0,135.21666666666667,8853.0,242.118,233.697,8.420999999999992,9.463936481764488,1.2949456052214992
51.0,138.21666666666667,9033.0,239.426,231.067,8.35899999999998,9.40957120580909,1.2875068322214112
52.0,141.21666666666667,9213.0,240.96,232.703,8.257000000000005,9.30969452346882,1.273840756681931
53.0,144.21666666666667,9393.0,239.848,232.248,7.600000000000023,8.582519967999213,1.1743418328832897
54.0,147.21666666666667,9573.0,239.782,231.658,8.124000000000024,9.18861040312445,1.257272878209355
55.0,150.21666666666667,9753.0,237.131,229.186,7.944999999999993,9.000016117738003,1.2314676182626465
56.0,153.21666666666667,9933.0,239.135,230.838,8.296999999999997,9.413060856131635,1.2879843192964402
57.0,156.21666666666667,10113.0,238.871,230.442,8.429000000000002,9.577172396965649,1.3104396177844024
58.0,159.21666666666667,10293.0,238.482,230.005,8.477000000000004,9.64597534376077,1.3198538899268986
59.0,162.21666666666667,10473.0,237.545,229.815,7.72999999999999,8.808816452771131,1.2053058655558584
60.0,165.21666666666667,10653.0,235.739,227.537,8.201999999999998,9.360164323331563,1.2807465136737068
61.0,168.21666666666667,10833.0,237.037,228.956,8.081000000000017,9.235196529663737,1.2636472341597125
62.0,171.21666666666667,11013.0,237.185,228.95,8.235000000000014,9.424401852214267,1.2895361020101488
63.0,174.21666666666667,11193.0,237.308,228.745,8.562999999999988,9.813349505851265,1.3427556112184926
64.0,177.21666666666667,11373.0,234.473,226.324,8.149000000000001,9.351663769980957,1.2795833872913047
65.0,180.21666666666667,11553.0,234.236,225.698,8.537999999999982,9.811292222771701,1.3424741142232717
66.0,183.21666666666667,11733.0,233.83,225.005,8.825000000000017,10.154596159512959,1.389448216912457
67.0,186.21666666666667,11913.0,233.578,224.618,8.960000000000008,10.323485570296063,1.4125572689103685
68.0,189.21666666666667,12093.0,232.879,224.359,8.519999999999982,9.829263914438553,1.3449331716342368
69.0,192.21666666666667,12273.0,234.948,226.428,8.52000000000001,9.841852099078087,1.3466556065225195
70.0,195.21666666666667,12453.0,234.85,226.385,8.465000000000003,9.79068212214701,1.3396540446593495
71.0,198.21666666666667,12633.0,234.99,225.995,8.995000000000005,10.416670811859168,1.4253077580188023
72.0,201.21666666666667,12813.0,232.472,223.551,8.92100000000002,10.343708069079364,1.4153243031118863
73.0,204.21666666666667,12993.0,233.637,225.345,8.292000000000002,9.626096993515413,1.3171339453944224
74.0,207.21666666666667,13173.0,231.752,222.608,9.144000000000005,10.627932372502991,1.4542145696859226
75.0,210.21666666666667,13353.0,231.36,222.436,8.924000000000007,10.384540147065282,1.4209113355314094
76.0,213.21666666666667,13533.0,231.394,222.133,9.260999999999996,10.789327341605823,1.4762981610484889
77.0,216.21666666666667,13713.0,232.897,223.986,8.911000000000001,10.393586965538653,1.422149207092139
78.0,219.21666666666667,13893.0,232.82,223.69,9.129999999999995,10.66120203224603,1.4587668402716851
79.0,222.21666666666667,14073.0,233.122,223.726,9.396000000000015,10.984208286067595,1.5029636213522901
80.0,225.21666666666667,14253.0,232.085,223.525,8.560000000000002,10.018067425398854,1.3707670598095776
81.0,228.21666666666667,14433.0,232.089,223.063,9.02600000000001,10.575091514103407,1.4469843819630317
82.0,231.21666666666667,14613.0,230.528,220.841,9.686999999999983,11.36190135850903,1.554643171951879
83.0,234.21666666666667,14793.0,231.351,222.849,8.50200000000001,9.982748232991396,1.365934352713948
84.0,237.21666666666667,14973.0,229.887,221.265,8.622000000000014,10.134418479440818,1.386687315232344
85.0,240.21666666666667,15153.0,232.64,224.007,8.632999999999981,10.158017291030001,1.3899163285942517
86.0,243.21666666666667,15333.0,230.379,221.485,8.893999999999977,10.475998221540136,1.43342549724746
87.0,246.21666666666667,15513.0,229.059,220.26,8.799000000000007,10.374746202448126,1.4195712350812209
88.0,249.21666666666667,15693.0,228.724,219.53,9.193999999999988,10.851491117218252,1.4848039987819097
89.0,252.21666666666667,15873.0,228.188,219.384,8.804000000000002,10.401612878993072,1.4232473887394603
90.0,255.21666666666667,16053.0,230.597,221.225,9.372000000000014,11.083673738069407,1.516573428454155
91.0,258.2166666666667,16233.0,228.284,219.397,8.887,10.520408232633384,1.4395020964304586
92.0,261.2166666666667,16413.0,230.028,220.918,9.109999999999985,10.794859514124976,1.4770551253946476
93.0,264.2166666666667,16593.0,227.79,218.796,8.994,10.667632356138208,1.459646698212445
94.0,267.2166666666667,16773.0,229.941,220.703,9.238,10.96743508590371,1.5006685529228292
95.0,270.2166666666667,16953.0,227.781,218.81,8.971000000000004,10.660447414084704,1.4586635862532846
96.0,273.2166666666667,17133.0,227.198,218.513,8.685000000000002,10.330169430264219,1.4134718180631822
97.0,276.2166666666667,17313.0,228.435,219.843,8.592000000000013,10.228939339981723,1.3996205564047721
98.0,279.2166666666667,17493.0,228.779,219.88,8.899000000000001,10.604055711522033,1.4509475383333525
99.0,282.2166666666667,17673.0,226.938,217.836,9.101999999999975,10.855701899158753,1.4853801579286774
100.0,285.2166666666667,17853.0,226.186,217.611,8.575000000000017,10.23626196720617,1.400622507755697
101.0,288.2166666666667,18033.0,226.356,216.855,9.501000000000005,11.351643504432856,1.553239595006858
102.0,291.2166666666667,18213.0,228.029,218.552,9.477000000000004,11.332833813882301,1.5506658746357471
103.0,294.2166666666667,18393.0,227.369,218.331,9.038000000000011,10.81718643981332,1.480110107256998
104.0,297.2166666666667,18573.0,225.96,216.213,9.747000000000014,11.67571481833235,1.5975821077150865
105.0,300.2166666666667,18753.0,225.384,215.827,9.556999999999988,11.457791099406489,1.5677637163258031
106.0,303.2166666666667,18933.0,227.069,217.777,9.292000000000002,11.149403987289165,1.5255672649535068
107.0,306.2166666666667,19113.0,226.489,217.415,9.074000000000012,10.8968448280274,1.49100972391605
108.0,309.2166666666667,19293.0,224.712,215.658,9.054000000000002,10.881743711998977,1.4889434459066164
109.0,312.2166666666667,19473.0,226.407,217.56,8.847000000000008,10.641591357457177,1.4560835216354935
110.0,315.2166666666667,19653.0,224.077,215.175,8.901999999999987,10.716359850198042,1.4663140563892272
111.0,318.2166666666667,19833.0,224.355,214.82,9.534999999999997,11.487518082746206,1.5718312443049305
112.0,321.2166666666667,20013.0,223.831,214.62,9.210999999999984,11.105927422005681,1.5196183886848997
113.0,324.2166666666667,20193.0,223.649,214.311,9.337999999999994,11.267854838851278,1.5417748346007307
114.0,327.2166666666667,20373.0,224.941,216.222,8.718999999999994,10.529075108065202,1.4406879805784618
115.0,330.2166666666667,20553.0,223.567,214.105,9.462000000000018,11.435089493972043,1.5646574672247604
116.0,333.2166666666667,20733.0,225.654,216.055,9.59899999999999,11.609477059248656,1.5885188288997198
117.0,336.2166666666667,20913.0,225.232,215.681,9.550999999999988,11.560126153601479,1.581766169633182
118.0,339.2166666666667,21093.0,222.787,213.258,9.528999999999996,11.542109604773497,1.5793009744397224
119.0,342.2166666666667,21273.0,222.54,213.008,9.531999999999982,11.554287524033203,1.5809672729251871
120.0,345.2166666666667,21453.0,223.941,214.55,9.390999999999991,11.391723417589098,1.5587237090961001
121.0,348.2166666666667,21633.0,223.521,214.26,9.260999999999996,11.24219639694846,1.5382640030727606
122.0,351.2166666666667,21813.0,223.575,214.226,9.34899999999999,11.357203962545416,1.5540004296563459
123.0,354.2166666666667,21993.0,221.647,212.269,9.377999999999986,11.40057657601183,1.5599350822508053
124.0,357.2166666666667,22173.0,221.451,212.163,9.287999999999982,11.299169063881434,1.5460595440513756
125.0,360.2166666666667,22353.0,221.916,212.256,9.659999999999997,11.759979871972375,1.6091120520564457
126.0,363.2166666666667,22533.0,221.676,211.985,9.690999999999974,11.805943081648923,1.615401174609963
127.0,366.2166666666667,22713.0,223.399,213.799,9.599999999999994,11.703169605324165,1.6013387322260229
128.0,369.2166666666667,22893.0,223.453,214.063,9.390000000000015,11.455013727741107,1.5673836899763995
129.0,372.2166666666667,23073.0,221.627,212.187,9.439999999999998,11.523844748077252,1.5768018034072058
130.0,375.2166666666667,23253.0,222.997,213.744,9.253000000000014,11.303189820619659,1.546609702146568
131.0,378.2166666666667,23433.0,223.204,213.584,9.620000000000005,11.759376649218183,1.6090295133944401
132.0,381.2166666666667,23613.0,223.129,213.126,10.002999999999986,12.235677636710411,1.6742015347519552
133.0,384.2166666666667,23793.0,222.083,212.726,9.357,11.453038404972768,1.56711340756879
134.0,387.2166666666667,23973.0,221.999,212.476,9.522999999999996,11.66385318365218,1.5959590862874355
135.0,390.2166666666667,24153.0,220.317,210.493,9.824000000000012,12.040337754272404,1.647473278198777
136.0,393.2166666666667,24333.0,219.713,210.244,9.468999999999994,11.612732231658475,1.5889642324814595
137.0,396.2166666666667,24513.0,221.415,211.863,9.551999999999992,11.722022526554108,1.6039183678289608
138.0,399.2166666666667,24693.0,218.986,209.723,9.262999999999977,11.374592467918973,1.5563796899840379
139.0,402.2166666666667,24873.0,220.385,211.12,9.264999999999986,11.384228079366297,1.5576981257872975
140.0,405.2166666666667,25053.0,218.266,209.217,9.048999999999978,11.125788813229997,1.5223360127231707
141.0,408.2166666666667,25233.0,220.631,211.232,9.399000000000001,11.563306722061416,1.5822013651944833
142.0,411.2166666666667,25413.0,219.373,210.041,9.331999999999994,11.487974083196324,1.5718936386141058
143.0,414.2166666666667,25593.0,219.147,209.465,9.681999999999988,11.926150900115275,1.6318491491432032
144.0,417.2166666666667,25773.0,220.166,210.869,9.296999999999997,11.45889594955775,1.5679148924088804
145.0,420.2166666666667,25953.0,219.708,210.437,9.270999999999987,11.433771305498707,1.564477100167808
146.0,423.2166666666667,26133.0,217.766,208.765,9.001000000000005,11.107464725380257,1.5198287371221102
147.0,426.2166666666667,26313.0,217.975,208.663,9.311999999999983,11.498117092781797,1.5732815014459978
148.0,429.2166666666667,26493.0,218.372,208.451,9.92100000000002,12.25736554672838,1.6771690804258217
149.0,432.2166666666667,26673.0,219.786,210.11,9.675999999999988,11.961726225794772,1.6367169028239
150.0,435.2166666666667,26853.0,218.048,208.05,9.99799999999999,12.367042501614206,1.6921761222627083
151.0,438.2166666666667,27033.0,220.589,210.092,10.496999999999986,12.991852548460345,1.7776685625195343
152.0,441.2166666666667,27213.0,220.244,210.176,10.068000000000012,12.468112993110791,1.7060055461005867
153.0,444.2166666666667,27393.0,219.609,209.581,10.02800000000002,12.425732100882328,1.7002065902176555
154.0,447.2166666666667,27573.0,217.401,207.756,9.64500000000001,11.958000317040609,1.6362070886280886
155.0,450.2166666666667,27753.0,217.61,207.675,9.935000000000002,12.324560067747438,1.6863632724891617
156.0,453.2166666666667,27933.0,217.435,207.887,9.548000000000002,11.851184951603232,1.6215915966169385
157.0,456.2166666666667,28113.0,219.383,209.299,10.084000000000003,12.523526122571376,1.7135876963617194
158.0,459.2166666666667,28293.0,216.69,207.41,9.280000000000001,11.531474090179179,1.57784572239849
159.0,462.2166666666667,28473.0,218.948,208.771,10.177000000000021,12.65314115626829,1.7313228553602888
160.0,465.2166666666667,28653.0,218.607,208.956,9.65100000000001,12.005805729065411,1.642748278789984
161.0,468.2166666666667,28833.0,216.413,206.971,9.442000000000007,11.752279860984203,1.608058463477475
162.0,471.2166666666667,29013.0,216.461,206.744,9.717000000000013,12.10119346879687,1.6558001346002245
163.0,474.2166666666667,29193.0,218.767,208.684,10.082999999999998,12.563840246329649,1.7191038573682647
164.0,477.2166666666667,29373.0,217.82,208.409,9.411000000000001,11.732858585467689,1.6054010602471844
165.0,480.2166666666667,29553.0,216.06,206.482,9.578000000000003,11.947502519330548,1.6347706803179376
166.0,483.2166666666667,29733.0,217.64,208.147,9.492999999999995,11.847830921339073,1.6211326663653756
167.0,486.2166666666667,29913.0,215.667,206.059,9.608000000000004,11.997763202878263,1.6416478240309105
168.0,489.2166666666667,30093.0,215.421,205.607,9.813999999999993,12.261515401431124,1.6777369029297007
169.0,492.2166666666667,30273.0,214.774,205.51,9.26400000000001,11.58047418146389,1.5845503799146146
170.0,495.2166666666667,30453.0,216.962,207.291,9.670999999999992,12.095610738515074,1.655036252461172
171.0,498.2166666666667,30633.0,216.324,206.784,9.54000000000002,11.938021500892292,1.6334733973973157
172.0,501.2166666666667,30813.0,214.728,204.962,9.76600000000002,12.227205934540102,1.6730423560618481
173.0,504.2166666666667,30993.0,214.371,204.819,9.552000000000021,11.965485552881,1.637231289633055
174.0,507.2166666666667,31173.0,214.195,204.427,9.768,12.242388881810871,1.6751198309984643
175.0,510.2166666666667,31353.0,216.042,206.296,9.74600000000001,12.221104392946812,1.6722074852354714
176.0,513.2166666666666,31533.0,216.062,206.663,9.399000000000001,11.792021494527022,1.6134962909396267
177.0,516.2166666666666,31713.0,216.681,206.566,10.115000000000009,12.696795438698866,1.7372960485755535
178.0,519.2166666666666,31893.0,215.847,206.557,9.29000000000002,11.667146409306431,1.596409696675216
179.0,522.2166666666666,32073.0,213.682,204.374,9.307999999999993,11.695669835139565,1.6003125424941465
180.0,525.2166666666666,32253.0,213.469,203.896,9.573000000000008,12.034711563299906,1.6467034493555668
181.0,528.2166666666666,32433.0,215.11,205.606,9.504000000000019,11.953967868720092,1.6356553307796502
182.0,531.2166666666666,32613.0,213.588,203.977,9.61099999999999,12.09459715596495,1.654897564477441
183.0,534.2166666666666,32793.0,215.504,206.393,9.11099999999999,11.471103849727598,1.5695852931669991
184.0,537.2166666666666,32973.0,215.179,206.01,9.169000000000011,11.549858113524133,1.5803611989428126
185.0,540.2166666666666,33153.0,214.899,205.707,9.192000000000007,11.584556078702091,1.5851089038332566
186.0,543.2166666666666,33333.0,214.881,205.557,9.324000000000012,11.756703290862715,1.6086637191332185
187.0,546.2166666666666,33513.0,214.587,205.444,9.143,11.53413814533767,1.5782102437080108
188.0,549.2166666666666,33693.0,212.823,203.406,9.417000000000002,11.885607206093395,1.6263015761544959
189.0,552.2166666666666,33873.0,212.335,203.419,8.915999999999997,11.258758157284326,1.5405301402983207
190.0,555.2166666666666,34053.0,212.102,203.007,9.094999999999999,11.49037040246537,1.5722215257583334
191.0,558.2166666666666,34233.0,212.099,202.898,9.200999999999993,11.629914780385857,1.591315311866227
192.0,561.2166666666666,34413.0,211.554,202.688,8.866000000000014,11.211886697098134,1.5341167422904858
193.0,564.2166666666666,34593.0,214.127,204.598,9.528999999999996,12.05610664126866,1.6496309269693898
194.0,567.2166666666666,34773.0,212.031,202.966,9.064999999999998,11.474550062490527,1.5700568367028853
