"Frame","Time (aligned)","Time [ s]","Intensity Ch3-T2","background","Intensity (bg-subst)","bleach-Corrected","Normalized"
1.0,-357.8833333333333,0.0,271.527,269.436,2.091000000000008,2.091000000000008,0.3611371987466469
2.0,-354.8833333333333,180.0,270.003,267.98,2.0229999999999677,2.0297186346001284,0.3505532768739151
3.0,-351.8833333333333,360.0,266.456,264.22,2.23599999999999,2.2507679914811227,0.38873077353998386
4.0,-348.8833333333333,540.0,264.686,262.931,1.7549999999999955,1.7722881537991875,0.30609238605208156
5.0,-345.8833333333333,720.0,261.976,259.648,2.3279999999999745,2.3584032627931615,0.40732049155431427
6.0,-342.3333333333333,933.0,262.699,260.315,2.3840000000000146,2.4226969840806714,0.41842467826056434
7.0,-339.3333333333333,1113.0,259.203,257.392,1.8109999999999786,1.8460744705809793,0.31883604159890555
8.0,-336.3333333333333,1293.0,259.79,257.57,2.2200000000000273,2.2698758360138975,0.39203089474928693
9.0,-333.3333333333333,1473.0,257.01,254.902,2.108000000000004,2.1618164407018905,0.3733679261595047
10.0,-330.3333333333333,1653.0,257.002,255.68,1.3220000000000027,1.3597521126365224,0.23484317022830553
11.0,-327.3333333333333,1833.0,254.699,252.589,2.1100000000000136,2.1765672537647385,0.37591554323686116
12.0,-324.3333333333333,2013.0,252.846,251.065,1.781000000000006,1.8424531155512553,0.3182105963520851
13.0,-321.3333333333333,2193.0,252.316,250.489,1.8269999999999982,1.8953777313588893,0.32735122164979497
14.0,-318.3333333333333,2373.0,253.974,252.222,1.7519999999999811,1.8226282860008978,0.3147866444585194
15.0,-315.3333333333333,2553.0,254.68,252.744,1.936000000000007,2.019567977235524,0.3488001539824324
16.0,-312.3333333333333,2733.0,251.639,249.993,1.646000000000015,1.7216888822546543,0.297353371616781
17.0,-309.3333333333333,2913.0,252.639,250.816,1.8230000000000075,1.9119040618118923,0.33020548883552375
18.0,-306.3333333333333,3093.0,252.033,249.913,2.119999999999976,2.2292203010111873,0.3850092658519053
19.0,-303.3333333333333,3273.0,251.131,249.272,1.8590000000000089,1.959826347016686,0.33848216020634964
20.0,-300.3333333333333,3453.0,250.735,248.641,2.0940000000000225,2.2131944713578413,0.3822414403002074
21.0,-297.3333333333333,3633.0,249.512,247.724,1.788000000000011,1.8945190804537912,0.3272029238102118
22.0,-294.3333333333333,3813.0,249.172,247.473,1.6989999999999839,1.8046689101059956,0.3116848755910287
23.0,-291.3333333333333,3993.0,248.837,246.433,2.4039999999999964,2.559738921737639,0.44209322989913424
24.0,-288.3333333333333,4173.0,245.642,243.506,2.1359999999999957,2.2798386480651054,0.39375157482380274
25.0,-285.3333333333333,4353.0,244.77,242.807,1.9630000000000223,2.1001468298554253,0.3627169503063779
26.0,-282.3333333333333,4533.0,244.236,242.493,1.742999999999995,1.8691248883878688,0.3228170857484607
27.0,-279.3333333333333,4713.0,246.555,244.518,2.037000000000006,2.1894188185654144,0.3781351406121013
28.0,-276.3333333333333,4893.0,244.244,242.045,2.1990000000000123,2.3688931510493676,0.4091322031086001
29.0,-273.3333333333333,5073.0,245.473,243.515,1.9580000000000268,2.1139812180246693,0.36510629138232936
30.0,-270.3333333333333,5253.0,245.138,242.77,2.367999999999995,2.5622666434046364,0.44252979341995236
31.0,-267.3333333333333,5433.0,242.867,240.821,2.0459999999999923,2.2186492947786136,0.3831835443890813
32.0,-264.3333333333333,5613.0,244.73,242.963,1.766999999999996,1.920199790768747,0.33163824651942614
33.0,-261.3333333333333,5793.0,243.826,241.859,1.9669999999999845,2.142040713758602,0.3699524547910314
34.0,-258.3333333333333,5973.0,243.69,241.44,2.25,2.4553094734156566,0.4240571904760552
35.0,-255.33333333333334,6153.0,243.157,241.129,2.02800000000002,2.2175790556162327,0.38299870308200756
36.0,-252.33333333333334,6333.0,243.132,241.082,2.0500000000000114,2.2461551374435325,0.38793408622034614
37.0,-249.33333333333334,6513.0,240.964,239.037,1.9269999999999925,2.115581809744135,0.36538273002886446
38.0,-246.33333333333334,6693.0,242.999,240.691,2.3079999999999927,2.538831242995986,0.4384822588168505
39.0,-243.33333333333334,6873.0,240.601,238.269,2.3319999999999936,2.5701850629070924,0.4438973858817495
40.0,-240.33333333333334,7053.0,240.102,237.625,2.477000000000004,2.7351917212773897,0.472395732308528
41.0,-237.33333333333334,7233.0,241.426,239.328,2.0979999999999848,2.321033784175098,0.4008663983803544
42.0,-234.33333333333334,7413.0,238.85,236.933,1.9170000000000016,2.124715516527877,0.3669602150991915
43.0,-231.33333333333334,7593.0,240.802,238.573,2.228999999999985,2.4750280287235222,0.4274627877152773
44.0,-228.33333333333334,7773.0,238.312,236.065,2.247000000000014,2.499501305069067,0.4316895741636668
45.0,-225.33333333333334,7953.0,239.531,237.585,1.945999999999998,2.1685149736513667,0.3745248316712627
46.0,-222.33333333333334,8133.0,237.245,235.457,1.788000000000011,1.995931500227663,0.34471789138326536
47.0,-219.33333333333334,8313.0,237.128,234.953,2.174999999999983,2.4321218125486967,0.42005244303895284
48.0,-216.33333333333334,8493.0,238.987,236.948,2.0389999999999873,2.2839196644144213,0.3944564083065532
49.0,-213.33333333333334,8673.0,238.679,236.349,2.3300000000000125,2.6142482383853296,0.45150754932512227
50.0,-210.33333333333334,8853.0,236.743,234.634,2.109000000000009,2.3701985559958922,0.4093576599644671
51.0,-207.33333333333334,9033.0,236.076,233.627,2.448999999999984,2.7567938608716793,0.4761266439202046
52.0,-204.33333333333334,9213.0,235.72,233.395,2.3249999999999886,2.621416951321895,0.45274565975483533
53.0,-201.33333333333334,9393.0,235.302,233.128,2.1740000000000066,2.4550524224250383,0.42401279512708967
54.0,-198.33333333333334,9573.0,234.654,232.657,1.9969999999999857,2.2586970673362066,0.3901002064634438
55.0,-195.33333333333334,9753.0,234.212,232.246,1.9659999999999798,2.2270650330362174,0.3846370289131062
56.0,-192.33333333333334,9933.0,234.073,231.752,2.320999999999998,2.6332064899459455,0.454781834290084
57.0,-189.33333333333334,10113.0,235.61,233.079,2.531000000000006,2.8757650179997754,0.49667418596558366
58.0,-186.33333333333334,10293.0,232.819,230.848,1.9709999999999752,2.242800212640348,0.387354656212968
59.0,-183.33333333333334,10473.0,236.631,234.498,2.1330000000000098,2.430686351068685,0.41980452408256824
60.0,-180.33333333333334,10653.0,234.332,232.153,2.179000000000002,2.4866859376419774,0.42947622844701067
61.0,-177.33333333333334,10833.0,234.009,231.506,2.502999999999986,2.8604995562118742,0.4940376837620176
62.0,-174.33333333333334,11013.0,233.092,231.158,1.934000000000026,2.213332505425939,0.3822652802029738
63.0,-171.33333333333334,11193.0,231.383,228.761,2.622000000000014,3.0048583912579923,0.5189699388088297
64.0,-168.33333333333334,11373.0,233.24,230.81,2.430000000000007,2.7886296430302844,0.4816250108205714
65.0,-165.33333333333334,11553.0,231.222,228.839,2.3830000000000098,2.7383824510265997,0.4729468041419031
66.0,-162.33333333333334,11733.0,230.407,228.436,1.9710000000000036,2.267955697495755,0.39169926708518005
67.0,-159.33333333333334,11913.0,232.034,229.691,2.3429999999999893,2.6995453896432524,0.46623924433533515
68.0,-156.33333333333334,12093.0,232.231,229.732,2.4989999999999952,2.8830200143406044,0.49792719842634126
69.0,-153.33333333333334,12273.0,230.222,227.427,2.795000000000016,3.228635753160021,0.5576185899901847
70.0,-150.33333333333334,12453.0,229.332,227.021,2.311000000000007,2.672919832756267,0.4616407369086324
71.0,-147.33333333333334,12633.0,229.305,226.743,2.562000000000012,2.966927250692974,0.5124188408418685
72.0,-144.33333333333334,12813.0,228.995,226.424,2.570999999999998,2.9810193302996257,0.5148526878785308
73.0,-141.33333333333334,12993.0,228.723,226.311,2.412000000000006,2.8000658403713494,0.48360015968334813
74.0,-138.33333333333334,13173.0,230.313,227.631,2.681999999999988,3.117247880911295,0.5383807592114882
75.0,-135.33333333333334,13353.0,230.646,227.298,3.3479999999999848,3.8959480515883436,0.6728702849416862
76.0,-132.33333333333334,13533.0,229.772,227.407,2.3649999999999807,2.755291994697935,0.4758672561904684
77.0,-129.33333333333334,13713.0,229.547,227.033,2.51400000000001,2.932272206415023,0.5064335583870717
78.0,-126.33333333333333,13893.0,229.925,227.13,2.795000000000016,3.26375242936778,0.5636836010255567
79.0,-123.33333333333333,14073.0,227.648,225.298,2.3499999999999943,2.7472211017729613,0.4744733300009375
80.0,-120.33333333333333,14253.0,229.004,226.642,2.3619999999999948,2.7643312218214993,0.4774284236520842
81.0,-117.33333333333333,14433.0,229.446,226.421,3.0250000000000057,3.5441670540840713,0.6121140898144775
82.0,-114.33333333333333,14613.0,227.04,224.306,2.7339999999999804,3.206713978957729,0.5538324741953629
83.0,-111.33333333333333,14793.0,228.414,226.112,2.3019999999999925,2.702927126834403,0.46682330511778825
84.0,-108.33333333333333,14973.0,227.919,225.411,2.5080000000000098,2.9479380128088177,0.5091392042202435
85.0,-105.33333333333333,15153.0,227.549,225.012,2.537000000000006,2.985160415538426,0.5155678958760973
86.0,-102.33333333333333,15333.0,227.813,224.871,2.941999999999979,3.4653009633203213,0.5984931050729569
87.0,-99.33333333333333,15513.0,227.825,224.925,2.8999999999999773,3.419339014331095,0.5905550039218783
88.0,-96.33333333333333,15693.0,227.792,224.531,3.2609999999999957,3.84889194401226,0.6647432113529977
89.0,-93.33333333333333,15873.0,227.552,224.289,3.2630000000000052,3.855118448904412,0.6658185927660699
90.0,-90.33333333333333,16053.0,225.219,221.795,3.4240000000000066,4.049349005457711,0.699364206876381
91.0,-87.33333333333333,16233.0,227.093,223.96,3.1329999999999814,3.7088375146663886,0.6405543714266333
92.0,-84.33333333333333,16413.0,224.561,221.469,3.092000000000013,3.6638535255405733,0.632785173998921
93.0,-81.33333333333333,16593.0,226.577,223.75,2.826999999999998,3.3530572237939396,0.5791074572157567
94.0,-78.33333333333333,16773.0,224.341,220.967,3.3739999999999952,4.005642561143004,0.6918156545727036
95.0,-75.33333333333333,16953.0,225.155,222.212,2.943000000000012,3.497235173297447,0.604008471469574
96.0,-72.33333333333333,17133.0,223.205,220.07,3.1350000000000193,3.7288521777637897,0.6440111095255588
97.0,-69.33333333333333,17313.0,223.919,220.395,3.524000000000001,4.195388993726204,0.7245868143695787
98.0,-66.33333333333333,17493.0,223.334,219.583,3.7510000000000048,4.469694681865287,0.7719622270022041
99.0,-63.333333333333336,17673.0,222.852,219.768,3.084000000000003,3.6782009071638893,0.6352631143187648
100.0,-60.333333333333336,17853.0,223.055,219.56,3.4950000000000045,4.172097443193649,0.72056412411908
101.0,-57.333333333333336,18033.0,222.677,219.191,3.48599999999999,4.165017288333102,0.7193413085796106
102.0,-54.333333333333336,18213.0,224.2,220.786,3.4139999999999873,4.082546654067111,0.7050977821149148
103.0,-51.333333333333336,18393.0,221.998,218.341,3.6569999999999823,4.376903165567279,0.7559361780957878
104.0,-48.333333333333336,18573.0,223.708,220.169,3.5389999999999873,4.239289498520363,0.7321688829133025
105.0,-45.333333333333336,18753.0,221.794,218.076,3.7180000000000177,4.457472774677575,0.7698513779705866
106.0,-42.333333333333336,18933.0,223.475,219.433,4.042000000000002,4.849966736614595,0.8376391206482089
107.0,-39.333333333333336,19113.0,223.553,219.43,4.1229999999999905,4.951255369843157,0.8551327090121682
108.0,-36.333333333333336,19293.0,221.964,217.634,4.3300000000000125,5.204103188972354,0.8988021270463704
109.0,-33.333333333333336,19473.0,221.409,217.394,4.014999999999986,4.82943249691312,0.8340926463277005
110.0,-30.333333333333332,19653.0,221.439,217.185,4.253999999999991,5.1210283984208536,0.8844542565794966
111.0,-27.333333333333332,19833.0,221.464,217.225,4.239000000000004,5.107036093629914,0.8820376416793488
112.0,-24.333333333333332,20013.0,221.334,216.678,4.656000000000006,5.6138527930581485,0.9695700965380447
113.0,-21.333333333333332,20193.0,222.801,218.254,4.546999999999997,5.486714066422871,0.9476119312634012
114.0,-18.333333333333332,20373.0,220.526,216.382,4.1440000000000055,5.004299489370603,0.8642939738309747
115.0,-15.333333333333334,20553.0,222.537,218.071,4.466000000000008,5.397284895379322,0.9321665939525919
116.0,-12.333333333333334,20733.0,222.134,217.863,4.270999999999987,5.165546048552027,0.8921429124681409
117.0,-9.333333333333334,20913.0,220.032,215.616,4.415999999999997,5.344939492650419,0.9231260047087944
118.0,-6.333333333333333,21093.0,219.645,215.581,4.064000000000021,4.922566211963454,0.8501777964769811
119.0,-3.3333333333333335,21273.0,221.431,216.695,4.736000000000018,5.740779029985477,0.9914915626553993
120.0,-0.3333333333333333,21453.0,219.628,214.939,4.688999999999993,5.687976903958604,0.9823720926022131
121.0,2.6666666666666665,21633.0,219.563,214.903,4.659999999999997,5.656909103744716,0.977006364079753
122.0,5.666666666666667,21813.0,221.512,216.628,4.8840000000000146,5.933103449895394,1.0247079673693356
123.0,8.666666666666666,21993.0,221.402,216.681,4.720999999999975,5.739189807565754,0.991217087603824
124.0,11.666666666666666,22173.0,219.295,214.418,4.876999999999981,5.933036985847291,1.0246964883448741
125.0,14.666666666666666,22353.0,221.671,216.608,5.062999999999988,6.163641624409525,1.0645242804005162
126.0,17.666666666666668,22533.0,221.463,216.572,4.890999999999991,5.958401363362391,1.0290771771271578
127.0,20.666666666666668,22713.0,218.999,214.284,4.715000000000003,5.747962988448282,0.9927323061442417
128.0,23.666666666666668,22893.0,219.124,214.453,4.670999999999992,5.698228873512092,0.9841427131503636
129.0,26.666666666666668,23073.0,221.048,216.073,4.974999999999994,6.073212671788588,1.0489062705319756
130.0,29.666666666666668,23253.0,219.002,213.557,5.445000000000022,6.6514501862395115,1.148773834462645
131.0,32.666666666666664,23433.0,220.477,215.145,5.331999999999994,6.5177750824980505,1.1256867696575954
132.0,35.666666666666664,23613.0,219.841,214.968,4.873000000000019,5.960657515114481,1.0294668377315086
133.0,38.666666666666664,23793.0,218.178,212.997,5.180999999999983,6.341582983452359,1.095256582622372
134.0,41.666666666666664,23973.0,219.876,214.615,5.260999999999996,6.443718533990769,1.1128964423133751
135.0,44.666666666666664,24153.0,219.675,214.544,5.131,6.288576243604604,1.0861017736585696
136.0,47.666666666666664,24333.0,217.467,212.223,5.244,6.431214259458979,1.1107368255382581
137.0,50.666666666666664,24513.0,217.462,211.823,5.638999999999982,6.920067527977224,1.195166811186666
138.0,53.666666666666664,24693.0,218.929,213.779,5.150000000000006,6.323993437307883,1.0922186871552073
139.0,56.666666666666664,24873.0,217.047,211.43,5.61699999999999,6.901803467004908,1.1920124200736673
140.0,59.666666666666664,25053.0,216.949,211.791,5.1580000000000155,6.341785688876189,1.0952915919331958
141.0,62.666666666666664,25233.0,217.343,211.839,5.503999999999991,6.771405489756987,1.169491348708032
142.0,65.66666666666667,25413.0,219.254,213.695,5.5589999999999975,6.843297034771579,1.181907757689447
143.0,68.66666666666667,25593.0,216.866,211.031,5.835000000000008,7.187470615799711,1.2413500737751002
144.0,71.66666666666667,25773.0,218.508,213.123,5.385000000000019,6.6372114325447695,1.1463146553029306
145.0,74.66666666666667,25953.0,216.671,211.149,5.521999999999991,6.810191473299952,1.1761900868464061
146.0,77.66666666666667,26133.0,218.065,212.757,5.307999999999993,6.550208061584079,1.1312882786074456
147.0,80.66666666666667,26313.0,215.5,210.233,5.266999999999996,6.503499004261361,1.1232211441657323
148.0,83.66666666666667,26493.0,217.49,212.231,5.2590000000000146,6.49747862213936,1.122181362274329
149.0,86.66666666666667,26673.0,215.6,210.124,5.475999999999999,6.769575528364225,1.1691752955606403
150.0,89.66666666666667,26853.0,215.671,210.053,5.617999999999995,6.949194316270115,1.200197306993735
151.0,92.66666666666667,27033.0,217.594,212.22,5.373999999999995,6.651254224580921,1.1487399898694144
152.0,95.66666666666667,27213.0,215.686,210.474,5.2120000000000175,6.454489960279458,1.1147567783805217
153.0,98.66666666666667,27393.0,217.429,211.931,5.4979999999999905,6.812592250762942,1.1766047257980075
154.0,101.66666666666667,27573.0,217.177,211.548,5.628999999999991,6.978909671811446,1.2053294544160003
155.0,104.66666666666667,27753.0,216.503,211.392,5.11099999999999,6.340294565300153,1.0950340595605343
156.0,107.66666666666667,27933.0,214.681,209.197,5.484000000000009,6.806859894699645,1.1756146889683003
157.0,110.66666666666667,28113.0,216.495,211.54,4.9550000000000125,6.153715979506278,1.0628100194745895
158.0,113.66666666666667,28293.0,214.984,209.391,5.593000000000018,6.949949847669434,1.2003277950344404
159.0,116.66666666666667,28473.0,216.798,211.041,5.757000000000005,7.1577216897549825,1.2362121283817409
160.0,119.66666666666667,28653.0,216.308,210.474,5.834000000000003,7.257472865337019,1.253440182002679
161.0,122.66666666666667,28833.0,215.813,210.197,5.6159999999999854,6.990129601703777,1.2072672516668135
162.0,125.66666666666667,29013.0,213.991,207.953,6.038000000000011,7.519502538293252,1.2986954005966118
163.0,128.66666666666666,29193.0,214.056,208.555,5.501000000000005,6.8544763656708785,1.1838385430767424
164.0,131.66666666666666,29373.0,215.519,210.572,4.947000000000003,6.16751157393568,1.0651926604728101
165.0,134.66666666666666,29553.0,215.82,210.393,5.4269999999999925,6.769586152892752,1.1691771305259537
166.0,137.66666666666666,29733.0,215.498,210.029,5.468999999999994,6.825638608322274,1.1788579658854412
167.0,140.66666666666666,29913.0,215.863,210.196,5.667000000000002,7.076532480298824,1.222189917156752
168.0,143.66666666666666,30093.0,215.219,209.752,5.4669999999999845,6.830416211496211,1.1796831070748046
169.0,146.66666666666666,30273.0,215.436,209.848,5.587999999999994,6.985286023965898,1.2064307159919356
170.0,149.66666666666666,30453.0,212.675,207.47,5.2050000000000125,6.5099424975670726,1.1243340017088062
171.0,152.66666666666666,30633.0,214.639,209.025,5.614000000000004,7.025162757443317,1.2133178378586031
172.0,155.66666666666666,30813.0,214.292,208.935,5.356999999999999,6.707059409310996,1.1583781190367786
173.0,158.66666666666666,30993.0,212.557,207.218,5.338999999999999,6.687994908587887,1.155085483749047
174.0,161.66666666666666,31173.0,214.241,208.791,5.450000000000017,6.830571192247077,1.1797098738439233
175.0,164.66666666666666,31353.0,212.238,206.615,5.6229999999999905,7.051022983946208,1.2177841648591807
176.0,167.66666666666666,31533.0,211.952,206.462,5.490000000000009,6.887775082982599,1.189589573919311
177.0,170.66666666666666,31713.0,211.897,206.151,5.745999999999981,7.212633375260838,1.2456959410465145
178.0,173.66666666666666,31893.0,213.823,208.289,5.53400000000002,6.95005255426285,1.2003455335191076
179.0,176.66666666666666,32073.0,213.904,208.324,5.579999999999984,7.011370614533588,1.210935792973317
180.0,179.66666666666666,32253.0,213.749,208.178,5.570999999999998,7.003591154198652,1.2095922001884682
181.0,182.66666666666666,32433.0,213.827,207.807,6.02000000000001,7.571852543107632,1.307736784667888
182.0,185.66666666666666,32613.0,213.102,207.665,5.437000000000012,6.84198571813356,1.1816812798236773
183.0,188.66666666666666,32793.0,213.404,207.701,5.703000000000003,7.180299117001053,1.2401114821983608
184.0,191.66666666666666,32973.0,211.825,205.73,6.094999999999999,7.6776513471403085,1.32600932590132
185.0,194.66666666666666,33153.0,211.695,205.838,5.856999999999999,7.381499668511541,1.2748608861002153
186.0,197.66666666666666,33333.0,213.33,207.413,5.917000000000002,7.4607907949415075,1.2885552788713222
187.0,200.66666666666666,33513.0,213.11,207.434,5.676000000000016,7.160425255707842,1.2366790620186814
188.0,203.66666666666666,33693.0,210.942,204.838,6.104000000000013,7.704125133906152,1.3305816210676675
189.0,206.66666666666666,33873.0,210.08,204.807,5.273000000000025,6.658527564306926,1.1499961704213906
190.0,209.66666666666666,34053.0,210.829,204.899,5.930000000000007,7.491797304741036,1.293910421909061
191.0,212.66666666666666,34233.0,212.891,207.079,5.811999999999983,7.346273742376096,1.2687770064790718
