"Frame","Time (aligned)","Time [ s]","Intensity Ch3-T2","background","Intensity (bg-subst)","bleach-Corrected","Normalized"
1.0,-447.8833333333333,0.0,273.02,267.47,5.5499999999999545,5.5499999999999545,0.7485033185494128
2.0,-444.8833333333333,180.0,272.117,265.969,6.148000000000025,6.168418272625723,0.8319065850921131
3.0,-441.8833333333333,360.0,267.635,262.664,4.971000000000004,5.003831701991377,0.6748440782708708
4.0,-438.8833333333333,540.0,266.579,261.073,5.506000000000029,5.560238504170029,0.749884139152707
5.0,-435.8833333333333,720.0,263.077,257.964,5.1129999999999995,5.17977486368624,0.6985727341996423
6.0,-432.3333333333333,933.0,263.783,258.654,5.129000000000019,5.2122537044252235,0.7029530080871679
7.0,-429.3333333333333,1113.0,260.255,255.423,4.831999999999994,4.925583568110096,0.6642911074816027
8.0,-426.3333333333333,1293.0,260.834,256.24,4.593999999999994,4.697211527318785,0.6334916065093145
9.0,-423.3333333333333,1473.0,257.444,253.639,3.805000000000007,3.902140207244161,0.526263944967094
10.0,-420.3333333333333,1653.0,258.644,254.081,4.563000000000017,4.693304757912603,0.6329647182452902
11.0,-417.3333333333333,1833.0,255.559,250.742,4.817000000000007,4.968968939044879,0.6701422956115454
12.0,-414.3333333333333,2013.0,254.304,249.361,4.943000000000012,5.113557411661902,0.6896422868868307
13.0,-411.3333333333333,2193.0,253.525,249.015,4.510000000000019,4.678792319884311,0.6310074915742235
14.0,-408.3333333333333,2373.0,254.996,250.598,4.397999999999996,4.575296348077641,0.6170494594384057
15.0,-405.3333333333333,2553.0,255.427,251.116,4.310999999999979,4.497085511292495,0.6065015187392689
16.0,-402.3333333333333,2733.0,252.44,247.965,4.474999999999994,4.680776274659476,0.6312750585531539
17.0,-399.3333333333333,2913.0,253.388,249.459,3.929000000000002,4.120609467284091,0.5557279028303236
18.0,-396.3333333333333,3093.0,252.906,248.298,4.608000000000004,4.845399597669659,0.6534770591988756
19.0,-393.3333333333333,3273.0,252.266,248.178,4.087999999999994,4.309720337065175,0.5812324278041809
20.0,-390.3333333333333,3453.0,251.43,247.113,4.317000000000007,4.562731868601583,0.6153549450990047
21.0,-387.3333333333333,3633.0,250.233,246.244,3.9890000000000043,4.226642400408353,0.5700280834283484
22.0,-384.3333333333333,3813.0,249.841,245.707,4.1340000000000146,4.391113169145546,0.5922095097714409
23.0,-381.3333333333333,3993.0,249.58,245.201,4.379000000000019,4.662685831235103,0.6288352825284379
24.0,-378.3333333333333,4173.0,246.594,242.05,4.543999999999983,4.849993828093549,0.654096662211211
25.0,-375.3333333333333,4353.0,245.734,241.376,4.358000000000004,4.662475743509856,0.6288069489501436
26.0,-372.3333333333333,4533.0,245.623,241.025,4.597999999999985,4.930714995299723,0.6649831597843648
27.0,-369.3333333333333,4713.0,247.538,242.744,4.794000000000011,5.152711740894741,0.6949228536195077
28.0,-366.3333333333333,4893.0,244.951,240.487,4.463999999999999,4.80888541440851,0.6485525569745347
29.0,-363.3333333333333,5073.0,246.72,242.218,4.5020000000000095,4.860645272495889,0.6555331741900392
30.0,-360.3333333333333,5253.0,246.108,241.641,4.467000000000013,4.833464989902267,0.6518674927989695
31.0,-357.3333333333333,5433.0,244.198,239.375,4.8230000000000075,5.229983161640914,0.7053440995397848
32.0,-354.3333333333333,5613.0,245.653,241.497,4.1559999999999775,4.516327295096144,0.6090965708170784
33.0,-351.3333333333333,5793.0,245.274,240.585,4.688999999999993,5.106267873316802,0.6886591799243081
34.0,-348.3333333333333,5973.0,244.108,240.002,4.1059999999999945,4.480666976819855,0.6042872254890908
35.0,-345.3333333333333,6153.0,244.353,240.089,4.26400000000001,4.66260211693666,0.6288239923608353
36.0,-342.3333333333333,6333.0,244.35,239.937,4.4129999999999825,4.835259815384495,0.6521095527682784
37.0,-339.3333333333333,6513.0,242.36,237.928,4.432000000000016,4.8657283761214725,0.6562187093129724
38.0,-336.3333333333333,6693.0,243.823,239.503,4.320000000000022,4.752058479091312,0.6408885660433787
39.0,-333.3333333333333,6873.0,241.563,237.164,4.399000000000001,4.848303641392938,0.6538687143996119
40.0,-330.3333333333333,7053.0,240.832,236.723,4.1089999999999804,4.537304312768964,0.6119256460137226
41.0,-327.3333333333333,7233.0,242.278,238.41,3.867999999999995,4.279198606858595,0.5771161005343619
42.0,-324.3333333333333,7413.0,240.179,235.883,4.295999999999992,4.761490797602366,0.6421606600446649
43.0,-321.3333333333333,7593.0,241.799,237.255,4.544000000000011,5.045548390542749,0.6804702187789059
44.0,-318.3333333333333,7773.0,239.106,234.732,4.373999999999995,4.865517894246559,0.656190322577501
45.0,-315.3333333333333,7953.0,240.049,236.51,3.5390000000000157,3.9436662341995015,0.5318643718107418
46.0,-312.3333333333333,8133.0,237.867,234.125,3.7419999999999902,4.17716760282542,0.5633556419553059
47.0,-309.3333333333333,8313.0,237.758,234.042,3.716000000000008,4.155294094451056,0.5604056611253005
48.0,-306.3333333333333,8493.0,239.706,235.611,4.094999999999999,4.586881327011826,0.6186118729839124
49.0,-303.3333333333333,8673.0,239.246,235.36,3.8859999999999957,4.360072383847779,0.5880231798965294
50.0,-300.3333333333333,8853.0,237.44,233.3,4.139999999999986,4.652736852452783,0.6274935089005561
51.0,-297.3333333333333,9033.0,236.554,232.694,3.8600000000000136,4.345130380957448,0.5860080197615407
52.0,-294.3333333333333,9213.0,236.406,232.368,4.038000000000011,4.5528093115861905,0.6140167348549476
53.0,-291.3333333333333,9393.0,235.823,231.663,4.159999999999997,4.697800403536394,0.6335710255729351
54.0,-288.3333333333333,9573.0,235.661,231.334,4.326999999999998,4.8940321534120335,0.6600359113363001
55.0,-285.3333333333333,9753.0,235.394,230.917,4.477000000000004,5.071500586420782,0.6839702736867169
56.0,-282.3333333333333,9933.0,234.547,230.408,4.13900000000001,4.695752547128955,0.6332948404707945
57.0,-279.3333333333333,10113.0,236.019,232.216,3.8029999999999973,4.321032936962905,0.5827581068248787
58.0,-276.3333333333333,10293.0,233.678,229.633,4.0449999999999875,4.6028040893608795,0.620759303697199
59.0,-273.3333333333333,10473.0,237.232,233.636,3.5960000000000036,4.097865972078274,0.5526605908236628
60.0,-270.3333333333333,10653.0,234.912,230.886,4.0260000000000105,4.594491778314189,0.6196382600209354
61.0,-267.3333333333333,10833.0,234.471,230.597,3.8739999999999952,4.42731733150813,0.5970922008838185
62.0,-264.3333333333333,11013.0,233.966,229.847,4.119,4.713917574896236,0.6357446753474345
63.0,-261.3333333333333,11193.0,232.046,227.716,4.329999999999984,4.962256611040042,0.6692370343886963
64.0,-258.3333333333333,11373.0,233.921,230.025,3.8959999999999866,4.470988102570337,0.6029818796340302
65.0,-255.33333333333334,11553.0,231.78,227.805,3.9749999999999943,4.567801192962935,0.6160386218750903
66.0,-252.33333333333334,11733.0,231.03,227.153,3.8770000000000095,4.461118335459689,0.6016507889249076
67.0,-249.33333333333334,11913.0,232.202,228.336,3.8659999999999854,4.454307501647811,0.6007322426708033
68.0,-246.33333333333334,12093.0,232.341,228.581,3.7600000000000193,4.337797220456482,0.5850190296767787
69.0,-243.33333333333334,12273.0,230.583,226.525,4.057999999999993,4.687586363621921,0.6321935043527948
70.0,-240.33333333333334,12453.0,230.171,226.126,4.0449999999999875,4.678477162916068,0.6309649877838464
71.0,-237.33333333333334,12633.0,229.744,225.566,4.177999999999997,4.8383380380152925,0.6525246986879876
72.0,-234.33333333333334,12813.0,229.883,225.131,4.7520000000000095,5.509842029398624,0.7430873952590874
73.0,-231.33333333333334,12993.0,229.242,225.085,4.156999999999982,4.825818282928532,0.6508362161240477
74.0,-228.33333333333334,13173.0,230.912,226.687,4.224999999999994,4.910653354530299,0.6622775373174352
75.0,-225.33333333333334,13353.0,230.355,226.533,3.8220000000000027,4.447524926275606,0.5998175075042433
76.0,-222.33333333333334,13533.0,230.519,226.354,4.164999999999992,4.852342984320073,0.6544134822528946
77.0,-219.33333333333334,13713.0,229.855,226.206,3.649000000000001,4.256110294832291,0.5740022846476244
78.0,-216.33333333333334,13893.0,229.943,226.141,3.802000000000021,4.439637472792951,0.5987537624399782
79.0,-213.33333333333334,14073.0,228.38,224.15,4.22999999999999,4.944997983191331,0.6669094415565576
80.0,-210.33333333333334,14253.0,229.768,225.581,4.187000000000012,4.900192559596391,0.6608667373674
81.0,-207.33333333333334,14433.0,229.445,225.601,3.843999999999994,4.503728315999711,0.607397403670409
82.0,-204.33333333333334,14613.0,227.222,222.981,4.241000000000014,4.974277243877055,0.6708582025994294
83.0,-201.33333333333334,14793.0,228.658,224.743,3.914999999999992,4.596854779129757,0.6199569472195278
84.0,-198.33333333333334,14973.0,228.298,224.147,4.1510000000000105,4.879143018807571,0.6580278813071525
85.0,-195.33333333333334,15153.0,227.737,223.942,3.7949999999999875,4.465385800933489,0.6022263226310218
86.0,-192.33333333333334,15333.0,227.69,223.723,3.9669999999999845,4.672620299623303,0.6301750992053013
87.0,-189.33333333333334,15513.0,227.915,223.537,4.377999999999986,5.162022829221242,0.6961785978558487
88.0,-186.33333333333334,15693.0,227.622,223.691,3.9310000000000116,4.639679310614001,0.6257324974774162
89.0,-183.33333333333334,15873.0,227.49,223.352,4.138000000000005,4.888899828858857,0.6593437380101875
90.0,-180.33333333333334,16053.0,225.046,220.908,4.138000000000005,4.8937518062453265,0.659998102185917
91.0,-177.33333333333334,16233.0,226.726,222.787,3.938999999999993,4.662978286074359,0.6288747245856827
92.0,-174.33333333333334,16413.0,224.632,220.485,4.146999999999991,4.913971723938118,0.6627250707433677
93.0,-171.33333333333334,16593.0,226.676,222.471,4.204999999999984,4.98747988187247,0.6726387824828842
94.0,-168.33333333333334,16773.0,223.668,219.931,3.7369999999999948,4.436599363067992,0.5983440263658794
95.0,-165.33333333333334,16953.0,225.169,221.148,4.021000000000015,4.778247581321451,0.6444205714360073
96.0,-162.33333333333334,17133.0,223.178,219.339,3.8389999999999986,4.566208456279138,0.6158238167051088
97.0,-159.33333333333334,17313.0,223.29,219.184,4.1059999999999945,4.888271057956801,0.6592589385314854
98.0,-156.33333333333334,17493.0,222.858,218.836,4.021999999999991,4.792618504522027,0.6463587126443406
99.0,-153.33333333333334,17673.0,222.865,218.637,4.228000000000009,5.042617845489279,0.6800749894640084
100.0,-150.33333333333334,17853.0,222.99,218.607,4.38300000000001,5.232132501721825,0.7056339712845152
101.0,-147.33333333333334,18033.0,222.496,218.236,4.260000000000019,5.089780163023278,0.6864355572450317
102.0,-144.33333333333334,18213.0,224.161,219.961,4.199999999999989,5.022465128026329,0.6773570838966557
103.0,-141.33333333333334,18393.0,221.575,217.385,4.189999999999998,5.014827526313092,0.6763270352069051
104.0,-138.33333333333334,18573.0,223.34,218.805,4.534999999999997,5.432375777278865,0.7326398733154431
105.0,-135.33333333333334,18753.0,221.476,217.024,4.451999999999998,5.337457986246493,0.7198387414997476
106.0,-132.33333333333334,18933.0,223.331,218.805,4.525999999999982,5.430714856486285,0.7324158724640748
107.0,-129.33333333333334,19113.0,222.922,218.406,4.515999999999991,5.423203795831119,0.7314028897926843
108.0,-126.33333333333333,19293.0,221.353,216.865,4.4879999999999995,5.3939988711565485,0.7274641541103597
109.0,-123.33333333333333,19473.0,220.985,216.695,4.2900000000000205,5.160215544646938,0.6959348575853208
110.0,-120.33333333333333,19653.0,221.098,216.493,4.605000000000018,5.543567412959138,0.7476357847211409
111.0,-117.33333333333333,19833.0,220.604,216.332,4.27200000000002,5.146793628682961,0.6941247046771536
112.0,-114.33333333333333,20013.0,220.217,215.782,4.435000000000002,5.3473877012914235,0.7211779171147711
113.0,-111.33333333333333,20193.0,222.265,217.245,5.019999999999982,6.057467476015555,0.8169431545590659
114.0,-108.33333333333333,20373.0,220.143,214.955,5.187999999999988,6.265035171538271,0.8449368678784187
115.0,-105.33333333333333,20553.0,221.562,216.889,4.673000000000002,5.647450137955113,0.7616459765048245
116.0,-102.33333333333333,20733.0,221.305,216.715,4.590000000000003,5.551359485566354,0.7486866661994974
117.0,-99.33333333333333,20913.0,219.0,214.492,4.50800000000001,5.456292398747319,0.7358653995384392
118.0,-96.33333333333333,21093.0,219.066,214.039,5.027000000000015,6.089010912288442,0.8211972746903646
119.0,-93.33333333333333,21273.0,220.475,215.585,4.889999999999986,5.927451321078715,0.7994084656518118
120.0,-90.33333333333333,21453.0,218.64,214.037,4.60299999999998,5.583654870744589,0.7530421982679193
121.0,-87.33333333333333,21633.0,218.511,213.841,4.6699999999999875,5.669048393666904,0.7645588352571046
122.0,-84.33333333333333,21813.0,220.099,215.415,4.6839999999999975,5.690142620661328,0.7674037179431517
123.0,-81.33333333333333,21993.0,220.467,215.55,4.917000000000002,5.977461614869937,0.8061531270688138
124.0,-78.33333333333333,22173.0,218.144,213.655,4.489000000000004,5.461021740715321,0.7365032244317012
125.0,-75.33333333333333,22353.0,220.269,215.393,4.876000000000005,5.935989840138444,0.8005600169764433
126.0,-72.33333333333333,22533.0,219.964,215.374,4.590000000000003,5.59171176811152,0.7541287954600562
127.0,-69.33333333333333,22713.0,218.269,213.114,5.155000000000001,6.284358262025637,0.8475428854197564
128.0,-66.33333333333333,22893.0,218.478,213.476,5.0020000000000095,6.102021157205649,0.8229519073922872
129.0,-63.333333333333336,23073.0,220.227,215.275,4.951999999999998,6.045135507677812,0.8152799979419403
130.0,-60.333333333333336,23253.0,217.75,212.657,5.092999999999989,6.22145744692702,0.8390597378808774
131.0,-57.333333333333336,23433.0,219.141,214.253,4.888000000000005,5.975034621764918,0.8058258095204889
132.0,-54.333333333333336,23613.0,218.939,214.236,4.703000000000003,5.752713378531359,0.7758423521611463
133.0,-51.333333333333336,23793.0,217.333,211.97,5.3629999999999995,6.564352352876878,0.8853044180641495
134.0,-48.333333333333336,23973.0,218.332,213.77,4.561999999999983,5.587577257568106,0.7535711927821601
135.0,-45.333333333333336,24153.0,219.039,213.667,5.371999999999986,6.583946907161146,0.8879470466960903
136.0,-42.333333333333336,24333.0,216.491,211.207,5.28400000000002,6.4802700509117805,0.8739646194961945
137.0,-39.333333333333336,24513.0,216.637,211.022,5.615000000000009,6.890615210071343,0.929306009294685
138.0,-36.333333333333336,24693.0,218.357,212.624,5.733000000000004,7.039894053608947,0.949438569614886
139.0,-33.333333333333336,24873.0,216.092,210.596,5.496000000000009,6.753126554149742,0.9107635380838349
140.0,-30.333333333333332,25053.0,216.338,210.587,5.751000000000005,7.0708820272832265,0.9536177770257546
141.0,-27.333333333333332,25233.0,216.43,211.047,5.38300000000001,6.622542832732919,0.8931523040605873
142.0,-24.333333333333332,25413.0,218.565,212.902,5.663000000000011,6.971324178433449,0.940190861665088
143.0,-21.333333333333332,25593.0,216.282,210.163,6.119,7.5372978060117175,1.0165211568819865
144.0,-18.333333333333332,25773.0,217.815,212.469,5.346000000000004,6.589142491807657,0.8886477516239673
145.0,-15.333333333333334,25953.0,216.052,210.444,5.608000000000004,6.9162538540866025,0.9327637768854109
146.0,-12.333333333333334,26133.0,217.762,211.953,5.8089999999999975,7.168454903869998,0.9667769881835224
147.0,-9.333333333333334,26313.0,215.008,209.203,5.805000000000007,7.1678017314860965,0.9666888977876782
148.0,-6.333333333333333,26493.0,217.182,211.324,5.857999999999976,7.237541313651285,0.9760943588119834
149.0,-3.3333333333333335,26673.0,215.312,209.208,6.104000000000013,7.545925680265765,1.0176847591362534
150.0,-0.3333333333333333,26853.0,215.337,209.632,5.704999999999984,7.05680910899269,0.9517198263875308
151.0,2.6666666666666665,27033.0,217.294,211.267,6.027000000000015,7.459454635569287,1.0060228016743167
152.0,5.666666666666667,27213.0,215.745,209.61,6.134999999999991,7.59752415700581,1.0246436115816622
153.0,8.666666666666666,27393.0,217.286,211.154,6.132000000000005,7.598184009035735,1.0247326028310586
154.0,11.666666666666666,27573.0,216.429,210.491,5.937999999999988,7.362012014783506,0.992881157525432
155.0,14.666666666666666,27753.0,216.373,210.361,6.0120000000000005,7.458002529169359,1.005826962672653
156.0,17.666666666666668,27933.0,214.469,208.715,5.753999999999991,7.141989758224222,0.9632077540678905
157.0,20.666666666666668,28113.0,216.615,210.361,6.254000000000019,7.766970683316303,1.0474960957726667
158.0,23.666666666666668,28293.0,214.734,208.729,6.0049999999999955,7.461907533569603,1.0063536128983346
159.0,26.666666666666668,28473.0,216.477,210.095,6.382000000000005,7.934788922010821,1.0701289802007685
160.0,29.666666666666668,28653.0,215.922,209.639,6.282999999999987,7.816027084832426,1.0541121100665245
161.0,32.666666666666664,28833.0,215.573,209.495,6.078000000000003,7.5651723146644745,1.0202804653918105
162.0,35.666666666666664,29013.0,213.623,207.253,6.3700000000000045,7.932963095218279,1.0698827392253967
163.0,38.666666666666664,29193.0,213.587,207.562,6.024999999999977,7.507402309246837,1.0124892868751043
164.0,41.666666666666664,29373.0,215.819,209.38,6.438999999999993,8.027614114528356,1.0826478927493026
165.0,44.666666666666664,29553.0,215.592,209.682,5.910000000000025,7.372075578329904,0.9942383846805513
166.0,47.666666666666664,29733.0,215.279,209.043,6.23599999999999,7.782900413512101,1.0496444662078293
167.0,50.666666666666664,29913.0,214.962,209.324,5.637999999999977,7.040319414844643,0.9494959361547961
168.0,53.666666666666664,30093.0,215.175,209.018,6.157000000000011,7.692495447993847,1.0374519586936386
169.0,56.666666666666664,30273.0,214.928,208.742,6.186000000000007,7.732816632829839,1.0428898939472573
170.0,59.666666666666664,30453.0,212.756,206.638,6.117999999999995,7.651840192145096,1.0319689687982754
171.0,62.666666666666664,30633.0,214.082,208.301,5.781000000000006,7.234140701955793,0.975635733741862
172.0,65.66666666666667,30813.0,214.105,207.797,6.307999999999993,7.897728346823543,1.0651307885764394
173.0,68.66666666666667,30993.0,212.349,206.418,5.930999999999983,7.429574415215332,1.0019929919276638
174.0,71.66666666666667,31173.0,214.032,208.082,5.950000000000017,7.457229099792679,1.0057226537618227
175.0,74.66666666666667,31353.0,211.896,205.735,6.160999999999973,7.725654028826688,1.041923906043507
176.0,77.66666666666667,31533.0,211.535,205.666,5.869,7.363269938438034,0.9930508079812692
177.0,80.66666666666667,31713.0,211.575,205.329,6.245999999999981,7.840255492843579,1.0573796855258972
178.0,83.66666666666667,31893.0,213.3,207.351,5.949000000000012,7.471243701718401,1.0076127395365169
179.0,86.66666666666667,32073.0,213.566,207.468,6.098000000000013,7.662246954735848,1.0333724816513445
180.0,89.66666666666667,32253.0,213.282,206.962,6.320000000000022,7.945197647556211,1.0715327577886236
181.0,92.66666666666667,32433.0,213.199,207.318,5.881,7.397020731896331,0.9976026243609468
182.0,95.66666666666667,32613.0,212.7,206.795,5.905000000000001,7.430922506083978,1.0021748028265625
183.0,98.66666666666667,32793.0,212.76,206.811,5.948999999999984,7.490022698060517,1.0101453775691476
184.0,101.66666666666667,32973.0,210.914,204.635,6.278999999999996,7.909429501016239,1.0667088701519514
185.0,104.66666666666667,33153.0,211.149,204.899,6.25,7.876792372920802,1.062307248766842
186.0,107.66666666666667,33333.0,213.17,206.578,6.5919999999999845,8.311903484917067,1.1209887102563794
187.0,110.66666666666667,33513.0,212.756,206.324,6.431999999999988,8.114139401816882,1.0943171656635193
188.0,113.66666666666667,33693.0,210.438,203.896,6.542000000000002,8.256944073724434,1.113576583830576
189.0,116.66666666666667,33873.0,210.513,203.907,6.6059999999999945,8.341785148835825,1.1250187146900672
190.0,119.66666666666667,34053.0,210.314,204.444,5.8700000000000045,7.415994971134885,1.0001615939171646
191.0,122.66666666666667,34233.0,211.831,205.849,5.981999999999999,7.561150985356835,1.0197381269536576
192.0,125.66666666666667,34413.0,212.108,205.91,6.1980000000000075,7.837951020597137,1.057068891809867
