"Frame","Time (aligned)","Time [ s]","Intensity Ch3-T2","background","Intensity (bg-subst)","bleach-Corrected","Normalized"
1.0,-4.333333333333333,0.0,142.658,128.347,14.310999999999979,14.31114311071553,0.982150112296296
2.0,-3.3333333333333335,60.0,142.755,127.901,14.854,14.854297082970819,1.0194258722211116
3.0,-2.3333333333333335,120.0,142.296,127.783,14.512999999999991,14.513435396530905,0.9960330977219314
4.0,-1.3333333333333333,180.0,142.148,127.743,14.405000000000001,14.405576211524155,0.9886309000185732
5.0,-0.3333333333333333,240.0,139.949,125.178,14.771000000000015,14.771738568464073,1.0137600177420867
6.0,1.7333333333333336,364.0,147.114,132.096,15.018,15.018901107032942,1.0307223744967398
7.0,2.7333333333333334,424.0,143.555,129.133,14.421999999999997,14.423009575334722,0.9898273229801626
8.0,3.733333333333333,484.0,143.619,128.821,14.798000000000002,14.799183887354864,1.0156435446429122
9.0,4.733333333333333,544.0,145.438,131.033,14.405000000000001,14.406296508342,0.9886803327993834
10.0,5.733333333333333,604.0,144.942,130.995,13.947000000000003,13.948394769737327,0.957255292848905
11.0,6.733333333333333,664.0,143.503,128.585,14.917999999999978,14.919641070257187,1.023910322132254
12.0,7.733333333333333,724.0,144.728,130.521,14.207000000000022,14.208704942294514,0.9751199500066885
13.0,8.733333333333333,784.0,142.721,127.84,14.881,14.8829346557499,1.0213912215369052
14.0,9.733333333333333,844.0,142.286,127.988,14.298000000000002,14.30000186012694,0.9813855066717103
15.0,10.733333333333333,904.0,144.022,130.138,13.883999999999986,13.886082756202796,0.9529789222880849
16.0,11.733333333333333,964.0,141.746,127.879,13.867000000000004,13.869218897507071,0.9518215835218088
17.0,12.733333333333333,1024.0,143.82,130.05,13.769999999999982,13.772341098987757,0.9451730202338406
18.0,13.733333333333333,1084.0,141.923,127.275,14.647999999999996,14.650636877311834,1.005449008716163
19.0,14.733333333333333,1144.0,141.289,127.46,13.828999999999994,13.831627759629253,0.9492417658229416
20.0,15.733333333333333,1204.0,141.572,127.385,14.186999999999998,14.189837683758915,0.9738251212186523
21.0,16.733333333333334,1264.0,143.576,129.574,14.001999999999981,14.004940728765694,0.961135948613435
22.0,17.733333333333334,1324.0,141.56,127.216,14.344000000000008,14.347156027150266,0.9846216192644578
23.0,18.733333333333334,1384.0,143.721,129.672,14.049000000000007,14.052231641624546,0.9643814458469956
24.0,19.733333333333334,1444.0,141.803,127.41,14.393,14.396454734551565,0.9880049081209569
25.0,20.733333333333334,1504.0,143.541,130.102,13.438999999999993,13.442360170003742,0.9225269741458365
26.0,21.733333333333334,1564.0,141.503,127.382,14.120999999999981,14.124671937331149,0.9693529036832145
27.0,22.733333333333334,1624.0,143.645,129.88,13.765000000000015,13.768717051779424,0.9449243078601962
28.0,23.733333333333334,1684.0,143.436,129.617,13.819000000000017,13.82286986175538,0.948640725758304
29.0,24.733333333333334,1744.0,140.562,126.953,13.609000000000009,13.61294718231378,0.9342340790221162
30.0,25.733333333333334,1804.0,140.217,126.752,13.465000000000018,13.469040105985615,0.9243579740818957
31.0,26.733333333333334,1864.0,143.073,128.896,14.177000000000021,14.181395551275267,0.973245751611159
32.0,27.733333333333334,1924.0,142.405,129.128,13.277000000000015,13.28124931985493,0.9114702026257944
33.0,28.733333333333334,1984.0,142.878,129.296,13.581999999999994,13.58648279962125,0.9324178721522498
34.0,29.733333333333334,2044.0,143.394,129.078,14.316000000000003,14.32086826755859,0.982817533746254
35.0,30.733333333333334,2104.0,142.83,129.277,13.553000000000026,13.55774438021813,0.9304456018992288
36.0,31.733333333333338,2164.0,140.331,126.693,13.637999999999991,13.64291056384845,0.936290416402812
37.0,32.733333333333334,2224.0,142.684,129.115,13.568999999999988,13.5740214589126,0.9315626709232719
38.0,33.733333333333334,2284.0,140.575,126.572,14.002999999999986,14.00832215114466,0.9613680100458118
39.0,34.733333333333334,2344.0,142.274,128.959,13.314999999999998,13.3201938627374,0.9141429022745531
40.0,35.733333333333334,2404.0,140.008,126.63,13.378000000000014,13.383352270382726,0.9184773594651088
41.0,36.733333333333334,2464.0,139.952,126.657,13.295000000000002,13.300452067597485,0.9127880554839372
42.0,37.733333333333334,2524.0,139.823,126.481,13.342000000000013,13.347604816929177,0.9160240707828496
43.0,38.733333333333334,2584.0,141.92,128.803,13.11699999999999,13.122641522840475,0.9005852115077768
44.0,39.733333333333334,2644.0,142.15,128.746,13.403999999999996,13.409899057697517,0.9202992216280834
45.0,40.733333333333334,2704.0,142.054,128.9,13.153999999999996,13.159920632042295,0.9031436151940246
46.0,41.733333333333334,2764.0,139.307,126.674,12.632999999999981,12.638812516776346,0.867380826018662
47.0,42.733333333333334,2824.0,141.989,128.701,13.288000000000011,13.294246827889571,0.9123622001327046
48.0,43.733333333333334,2884.0,139.304,126.457,12.847000000000008,12.853168040211232,0.8820916915158611
49.0,44.733333333333334,2944.0,138.982,126.492,12.489999999999995,12.496121599669431,0.8575881840769233
50.0,45.733333333333334,3004.0,139.56,126.366,13.194000000000003,13.200598649524911,0.9059352803412083
51.0,46.733333333333334,3064.0,138.637,126.43,12.206999999999994,12.213227157790257,0.8381736058206558
52.0,47.733333333333334,3124.0,141.205,128.355,12.850000000000023,12.856683737621196,0.8823329680218176
53.0,48.733333333333334,3184.0,140.631,128.497,12.133999999999986,12.140432724521405,0.8331778441085103
54.0,49.733333333333334,3244.0,140.793,128.34,12.453000000000003,12.459726435974265,0.8550904441106808
55.0,50.733333333333334,3304.0,140.639,128.136,12.503000000000014,12.50987854142551,0.8585323002656902
56.0,51.733333333333334,3364.0,138.624,126.311,12.312999999999988,12.319897211038832,0.8454941953756786
57.0,52.733333333333334,3424.0,140.925,128.301,12.624000000000024,12.631197731158526,0.8668582358599447
58.0,53.733333333333334,3484.0,140.711,128.314,12.39700000000002,12.404192345578613,0.851279231218992
59.0,54.733333333333334,3544.0,137.904,126.071,11.832999999999998,11.839983529938749,0.8125585121714451
60.0,55.733333333333334,3604.0,137.903,126.22,11.682999999999993,11.690011903360643,0.8022662071650996
61.0,56.733333333333334,3664.0,138.401,126.143,12.25800000000001,12.265479661064703,0.8417596088087982
62.0,57.733333333333334,3724.0,139.983,128.254,11.729000000000013,11.736274234779778,0.8054411145534808
63.0,58.733333333333334,3784.0,140.319,128.102,12.216999999999985,12.224699134972852,0.8389609086650883
64.0,59.733333333333334,3844.0,139.373,128.011,11.361999999999995,11.369274007434086,0.7802544951680279
65.0,60.733333333333334,3904.0,141.662,130.298,11.364000000000004,11.371389001165229,0.7803996436942132
66.0,61.733333333333334,3964.0,139.322,128.139,11.182999999999993,11.190383216193325,0.7679775156600576
67.0,62.733333333333334,4024.0,139.485,127.82,11.66500000000002,11.672818168794102,0.801086229562704
68.0,63.73333333333333,4084.0,137.395,125.531,11.864000000000004,11.872070263578646,0.8147605716997333
69.0,64.73333333333333,4144.0,138.63,127.798,10.831999999999994,10.839476659150764,0.7438953782837073
70.0,65.73333333333333,4204.0,136.494,125.305,11.188999999999993,11.196835041944743,0.7684202938041407
71.0,66.73333333333333,4264.0,139.707,127.689,12.018,12.026535809853923,0.8253612869917618
72.0,67.73333333333333,4324.0,136.421,125.555,10.865999999999985,10.87382633714326,0.746252739944944
73.0,68.73333333333333,4384.0,136.919,125.478,11.441000000000017,11.449354979196393,0.7857503199809498
74.0,69.73333333333333,4444.0,135.833,125.333,10.5,10.507772875609273,0.7211310955332645
75.0,70.73333333333333,4504.0,138.606,127.558,11.047999999999988,11.056289108026945,0.758774858515551
76.0,71.73333333333333,4564.0,138.458,127.721,10.736999999999995,10.745163221631291,0.7374228028553027
77.0,72.73333333333333,4624.0,138.872,127.571,11.301000000000016,11.309705121041512,0.7761663808918158
78.0,73.73333333333333,4684.0,136.083,125.411,10.671999999999997,10.680327407266631,0.7329732280123684
79.0,74.73333333333333,4744.0,136.143,125.292,10.850999999999999,10.859575676946386,0.745274740675118
80.0,75.73333333333333,4804.0,135.682,125.135,10.546999999999983,10.555440975940174,0.724402478519987
81.0,76.73333333333333,4864.0,135.631,125.199,10.432000000000002,10.440453343141789,0.7165110672195816
82.0,77.73333333333333,4924.0,138.03,127.74,10.290000000000006,10.298441260443797,0.7067650125620168
83.0,78.73333333333333,4984.0,136.09,125.365,10.725000000000009,10.73390544524854,0.736650200257943
84.0,79.73333333333333,5044.0,137.708,127.427,10.280999999999992,10.289639668152603,0.7061609738216936
85.0,80.73333333333333,5104.0,135.8,125.323,10.477000000000018,10.485909235888862,0.7196306300539884
86.0,81.73333333333333,5164.0,137.845,127.636,10.209000000000003,10.217783516370686,0.7012296048181269
87.0,82.73333333333333,5224.0,135.825,125.223,10.60199999999999,10.611227753490716,0.7282310329137229
88.0,83.73333333333333,5284.0,137.83,127.558,10.272000000000006,10.281043338485341,0.7055710219161946
89.0,84.73333333333333,5344.0,135.718,125.08,10.637999999999991,10.647472034430079,0.7307184180456653
90.0,85.73333333333333,5404.0,137.72,127.613,10.107,10.116100394563276,0.6942512601304123
91.0,86.73333333333333,5464.0,137.306,127.401,9.905000000000015,9.914017652409568,0.6803826553401494
92.0,87.73333333333333,5524.0,137.339,127.132,10.206999999999994,10.216394760927377,0.7011342968260228
93.0,88.73333333333333,5584.0,137.951,127.418,10.532999999999987,10.542800246408214,0.7235349661323829
94.0,89.73333333333333,5644.0,135.137,125.0,10.137,10.146533259930202,0.6963398174110145
95.0,90.73333333333333,5704.0,134.716,125.067,9.649000000000015,9.658170905490394,0.6628243157111395
96.0,91.73333333333333,5764.0,137.778,127.003,10.774999999999991,10.785348966709211,0.7401806841604961
97.0,92.73333333333333,5824.0,137.376,127.32,10.056000000000012,10.065759052375222,0.6907964169707403
98.0,93.73333333333333,5884.0,137.152,127.292,9.859999999999985,9.869667536319056,0.6773389801311415
99.0,94.73333333333333,5944.0,134.729,125.019,9.710000000000008,9.719617659956164,0.6670413049713204
100.0,95.73333333333333,6004.0,134.523,125.007,9.515999999999991,9.525520759586387,0.653720755311538
101.0,96.73333333333333,6064.0,134.273,124.84,9.432999999999993,9.442532142921857,0.6480253836318743
102.0,97.73333333333333,6124.0,136.848,127.182,9.666000000000011,9.675864349963254,0.6640385875789763
103.0,98.73333333333333,6184.0,134.332,124.67,9.661999999999992,9.671956986968,0.6637704317108614
104.0,99.73333333333333,6244.0,136.832,127.141,9.690999999999988,9.701083882710103,0.665769362453335
105.0,100.73333333333333,6304.0,135.922,127.091,8.831000000000003,8.840277419793031,0.6066936367982437
106.0,101.73333333333333,6364.0,136.199,126.831,9.36800000000001,9.377935344802475,0.6435922120790423
107.0,102.73333333333333,6424.0,136.514,126.772,9.742000000000004,9.752429518797499,0.6692931286444089
108.0,103.73333333333333,6484.0,133.996,124.725,9.271000000000015,9.281018088794205,0.6369409408887836
109.0,104.73333333333333,6544.0,133.99,124.502,9.488000000000014,9.498347558394844,0.651855903398923
110.0,105.73333333333333,6604.0,133.309,124.371,8.938000000000002,8.947837209473294,0.6140752874948913
111.0,106.73333333333333,6664.0,135.79,126.531,9.258999999999986,9.269283196118005,0.6361355945883134
112.0,107.73333333333333,6724.0,135.974,126.719,9.254999999999995,9.265371406903704,0.6358671349560965
113.0,108.73333333333333,6784.0,135.909,126.479,9.429999999999993,9.440661922851886,0.6478970335177339
114.0,109.73333333333333,6844.0,133.15,124.737,8.413000000000011,8.422596288845375,0.5780288707141755
115.0,110.73333333333333,6904.0,133.543,124.335,9.208000000000013,9.21859529112472,0.6326569673957767
116.0,111.73333333333333,6964.0,135.442,126.79,8.652000000000001,8.662042143317066,0.5944616441857907
117.0,112.73333333333333,7024.0,132.899,124.157,8.742000000000004,8.752234125796138,0.6006513709626629
118.0,113.73333333333333,7084.0,135.029,126.544,8.485,8.495018209581206,0.5829990675065024
119.0,114.73333333333333,7144.0,135.727,126.825,8.902000000000001,8.91259968556206,0.6116569944348108
120.0,115.73333333333333,7204.0,133.019,124.233,8.786000000000001,8.796549528451129,0.6036926638459313
121.0,116.73333333333333,7264.0,133.165,124.202,8.962999999999994,8.973851794011361,0.6158606254604011
122.0,117.73333333333333,7324.0,135.273,126.731,8.542000000000002,8.552427599542352,0.586938979109719
123.0,118.73333333333333,7384.0,134.882,126.503,8.379000000000005,8.389312510894054,0.5757446600120928
124.0,119.73333333333333,7444.0,135.298,126.486,8.811999999999998,8.82293365746666,0.6055033630385095
125.0,120.73333333333333,7504.0,132.075,124.245,7.829999999999984,7.839793619737108,0.5380320862167388
126.0,121.73333333333333,7564.0,132.182,124.034,8.147999999999982,8.158272950599748,0.5598887966242104
127.0,122.73333333333333,7624.0,135.199,126.491,8.708000000000013,8.719066185540443,0.5983751100102882
128.0,123.73333333333333,7684.0,134.433,126.318,8.114999999999995,8.1253938506453,0.5576323583045989
129.0,124.73333333333333,7744.0,132.135,124.372,7.762999999999991,7.773020731982495,0.5334495732267431
130.0,125.73333333333333,7804.0,131.967,124.316,7.6510000000000105,7.660952767897463,0.5257585339673763
131.0,126.73333333333333,7864.0,134.478,126.404,8.074000000000012,8.084583870921884,0.5548316368068067
132.0,127.73333333333333,7924.0,134.3,125.983,8.317000000000007,8.327985688959599,0.5715359015234294
133.0,128.73333333333332,7984.0,133.903,126.411,7.49199999999999,7.501970989238027,0.514847877106813
134.0,129.73333333333332,8044.0,131.5,123.862,7.638000000000005,7.648241780460402,0.5248861998957982
135.0,130.73333333333332,8104.0,131.403,123.844,7.5589999999999975,7.569211541239456,0.5194624851215719
136.0,131.73333333333332,8164.0,133.87,126.053,7.817000000000007,7.827638352439942,0.5371978903004138
137.0,132.73333333333332,8224.0,131.595,123.711,7.884,7.894808482119716,0.5418076653475622
138.0,133.73333333333332,8284.0,133.795,126.269,7.525999999999982,7.536393049554798,0.5172102062474023
139.0,134.73333333333332,8344.0,133.866,125.941,7.925000000000011,7.93602340949475,0.5446361777337855
140.0,135.73333333333332,8404.0,133.694,126.079,7.614999999999995,7.625668466183807,0.523337030623984
141.0,136.73333333333332,8464.0,133.396,125.907,7.48899999999999,7.499566937940561,0.5146828910373212
142.0,137.73333333333332,8524.0,131.009,123.677,7.331999999999979,7.34241883562256,0.5038980763551726
143.0,138.73333333333332,8584.0,130.43,123.591,6.839000000000013,6.848786765869863,0.4700209227979803
144.0,139.73333333333332,8644.0,133.085,125.806,7.279000000000011,7.289489310491011,0.5002656104752935
145.0,140.73333333333332,8704.0,133.412,126.162,7.25,7.2605201252475915,0.4982775031438356
146.0,141.73333333333332,8764.0,130.337,123.506,6.830999999999989,6.84098054402425,0.46948519468716726
147.0,142.73333333333332,8824.0,130.676,123.431,7.24499999999999,7.2556579816973015,0.4979438222633515
148.0,143.73333333333332,8884.0,132.51,125.569,6.940999999999988,6.951280285534789,0.4770548837520272
149.0,144.73333333333332,8944.0,130.105,123.511,6.593999999999994,6.603832383306485,0.45321010814251406
150.0,145.73333333333332,9004.0,132.766,125.616,7.1499999999999915,7.160733047773375,0.49142928084678944
151.0,146.73333333333332,9064.0,130.446,123.703,6.742999999999995,6.75318962122791,0.4634602486702093
152.0,147.73333333333332,9124.0,132.935,125.773,7.162000000000006,7.172894517735927,0.49226390244179435
153.0,148.73333333333332,9184.0,132.518,125.865,6.653000000000006,6.663186880976747,0.45728350927484496
154.0,149.73333333333332,9244.0,130.297,123.372,6.924999999999997,6.935672715881942,0.475983762027604
155.0,150.73333333333332,9304.0,132.519,125.825,6.694000000000003,6.7043837453237165,0.460110782025289
156.0,151.73333333333332,9364.0,129.879,123.47,6.408999999999992,6.419005842527979,0.4405257679485413
157.0,152.73333333333332,9424.0,129.577,123.229,6.347999999999999,6.357974187688553,0.4363372662900477
158.0,153.73333333333332,9484.0,130.166,123.67,6.495999999999995,6.506271792579258,0.4465146859531647
159.0,154.73333333333332,9544.0,129.751,123.392,6.359000000000009,6.369118852355843,0.4371021062172152
160.0,155.73333333333332,9604.0,129.344,123.341,6.003,6.012612487939688,0.41263566331067336
161.0,156.73333333333332,9664.0,131.839,125.65,6.188999999999993,6.1989723155599155,0.42542523044788394
162.0,157.73333333333332,9724.0,131.482,125.75,5.731999999999999,5.7412933655936715,0.3940154801136549
163.0,158.73333333333332,9784.0,131.426,125.418,6.007999999999981,6.01780102566587,0.41299174408430545
164.0,159.73333333333332,9844.0,129.283,123.55,5.73299999999999,5.742409833954776,0.39409210149307583
165.0,160.73333333333332,9904.0,129.351,123.411,5.939999999999998,5.949809090274036,0.4083255698686112
166.0,161.73333333333332,9964.0,128.833,123.164,5.668999999999997,5.678418355071939,0.38970047199957114
167.0,162.73333333333332,10024.0,130.982,125.511,5.471000000000004,5.480144203284557,0.3760932444750542
168.0,163.73333333333332,10084.0,128.221,122.947,5.274000000000001,5.2828677668384465,0.3625544885063653
169.0,164.73333333333332,10144.0,130.387,125.307,5.079999999999998,5.088592458582424,0.34922169500804706
170.0,165.73333333333332,10204.0,127.894,123.21,4.684000000000012,4.691969572217058,0.3220021214652912
171.0,166.73333333333332,10264.0,129.388,125.414,3.9740000000000038,3.9808013534999263,0.2731958213346187
172.0,167.73333333333332,10324.0,129.282,125.224,4.058000000000007,4.064985766036575,0.2789732585097497
173.0,168.73333333333332,10384.0,126.869,122.863,4.006,4.012936378237185,0.2754011950011508
174.0,169.73333333333332,10444.0,128.423,125.046,3.3769999999999953,3.3828810950689054,0.23216154165345523
175.0,170.73333333333332,10504.0,126.707,122.783,3.9239999999999924,3.9308730121315576,0.2697693217389998
176.0,171.73333333333332,10564.0,127.9,125.173,2.727000000000004,2.7318037460565265,0.18747917865148878
177.0,172.73333333333332,10624.0,126.001,122.936,3.0649999999999977,3.0704298540031916,0.2107185290914444
178.0,173.73333333333332,10684.0,127.528,124.962,2.5660000000000025,2.57057154747021,0.1764140791886261
179.0,174.73333333333332,10744.0,127.604,125.138,2.465999999999994,2.4704180930135737,0.16954071304446422
180.0,175.73333333333332,10804.0,127.217,124.855,2.3619999999999948,2.366255428736892,0.16239220145283434
181.0,176.73333333333332,10864.0,124.602,122.922,1.6800000000000068,1.6830435535850858,0.11550449900228146
182.0,177.73333333333332,10924.0,127.206,124.855,2.350999999999999,2.355282716089468,0.16163916230875694
183.0,178.73333333333332,10984.0,127.587,125.156,2.4309999999999974,2.4354528030721423,0.16714110295205056
184.0,179.73333333333332,11044.0,124.307,122.885,1.421999999999997,1.4246188886386688,0.09776924111731115
185.0,180.73333333333332,11104.0,124.287,123.039,1.2480000000000047,1.250310936957592,0.08580677431830872
186.0,181.73333333333332,11164.0,126.721,124.917,1.804000000000002,1.8073585624948487,0.12403603271809056
187.0,182.73333333333332,11224.0,126.74,124.99,1.75,1.7532755616956595,0.12032440570847228
188.0,183.73333333333332,11284.0,126.898,125.082,1.8160000000000025,1.8194172912472688,0.12486360335355379
189.0,184.73333333333332,11344.0,123.959,122.802,1.1569999999999965,1.1591887977623316,0.07955321242245335
190.0,185.73333333333332,11404.0,127.215,124.891,2.323999999999998,2.32841979747798,0.15979560457708106
191.0,186.73333333333332,11464.0,124.272,122.805,1.4669999999999987,1.469804647585807,0.10087026511524015
192.0,187.73333333333332,11524.0,124.598,122.686,1.911999999999992,1.915674566454962,0.1314695811516365
193.0,188.73333333333332,11584.0,126.307,124.837,1.4699999999999989,1.472839839563668,0.10107856532709848
194.0,189.73333333333332,11644.0,124.056,122.84,1.215999999999994,1.218361329749259,0.08361412555051102
