"Frame","Time (aligned)","Time [ s]","Intensity Ch3-T2","background","Intensity (bg-subst)","bleach-Corrected","Normalized"
1.0,-4.333333333333333,0.0,155.659,130.317,25.341999999999985,25.34225342126709,0.9964804206310781
2.0,-3.3333333333333335,60.0,155.344,129.638,25.70599999999999,25.706514125141222,1.0108034823328942
3.0,-2.3333333333333335,120.0,152.567,127.059,25.50800000000001,25.508765251478724,1.003027817022833
4.0,-1.3333333333333333,180.0,153.869,128.853,25.01599999999999,25.017000660013057,0.983691186660517
5.0,-0.3333333333333333,240.0,151.887,126.304,25.583,25.584279181979284,1.005997093352678
6.0,1.7333333333333336,364.0,158.897,132.845,26.051999999999992,26.05356316689453,1.024449765848303
7.0,2.7333333333333334,424.0,156.124,130.524,25.599999999999994,25.601792062721458,1.0066857157288467
8.0,3.733333333333333,484.0,158.129,132.408,25.721000000000004,25.7230577623094,1.011453993171456
9.0,4.733333333333333,544.0,155.473,129.951,25.52200000000002,25.52429708336722,1.0036385427588652
10.0,5.733333333333333,604.0,154.816,129.519,25.296999999999997,25.299529826489213,0.9948004900823841
11.0,6.733333333333333,664.0,155.072,129.382,25.689999999999998,25.692826055430196,1.0102652550002047
12.0,7.733333333333333,724.0,156.645,131.492,25.15300000000002,25.156018541108864,0.9891574960027375
13.0,8.733333333333333,784.0,156.689,131.142,25.546999999999997,25.5503213258815,1.0046618396100235
14.0,9.733333333333333,844.0,156.852,131.409,25.443000000000012,25.44656226935305,1.0005819392722346
15.0,10.733333333333333,904.0,155.885,131.013,24.871999999999986,24.87573107982398,0.9781363384649318
16.0,11.733333333333333,964.0,156.052,130.836,25.21599999999998,25.220034882781995,0.9916746766976543
17.0,12.733333333333333,1024.0,156.002,130.778,25.224000000000018,25.228288444507474,0.9919992142406736
18.0,13.733333333333333,1084.0,152.851,128.705,24.145999999999987,24.150346671188657,0.9496135647154769
19.0,14.733333333333333,1144.0,155.266,130.404,24.861999999999995,24.866724228787515,0.9777821809020592
20.0,15.733333333333333,1204.0,153.887,128.157,25.72999999999999,25.735146514634298,1.0119293338920057
21.0,16.733333333333334,1264.0,154.753,129.977,24.775999999999982,24.781203506349026,0.9744194284249388
22.0,17.733333333333334,1324.0,152.4,127.478,24.92200000000001,24.927483443156643,0.9801712883932245
23.0,18.733333333333334,1384.0,154.103,129.463,24.640000000000015,24.645667851777983,0.9690900433922676
24.0,19.733333333333334,1444.0,154.437,129.721,24.716000000000008,24.721932551877757,0.9720888406646108
25.0,20.733333333333334,1504.0,152.092,127.533,24.55900000000001,24.565140517532722,0.9659236354739537
26.0,21.733333333333334,1564.0,151.6,127.377,24.223,24.22929879880836,0.9527180340786543
27.0,22.733333333333334,1624.0,152.064,127.55,24.513999999999996,24.52061967361572,0.9641730354568283
28.0,23.733333333333334,1684.0,153.985,129.508,24.477000000000004,24.483854519587965,0.9627273962099491
29.0,24.733333333333334,1744.0,151.262,127.315,23.947000000000003,23.9539456370687,0.9418908976803506
30.0,25.733333333333334,1804.0,152.379,127.279,25.099999999999994,25.10753112961295,0.9872509269459301
31.0,26.733333333333334,1864.0,153.922,129.47,24.451999999999998,24.459581295040014,0.9617729509755203
32.0,27.733333333333334,1924.0,152.099,127.63,24.468999999999994,24.47683133294644,0.9624512381326707
33.0,28.733333333333334,1984.0,152.042,127.75,24.292,24.30001768284491,0.9554987648266218
34.0,29.733333333333334,2044.0,152.801,127.808,24.99299999999998,25.001499064759116,0.9830816498564167
35.0,30.733333333333334,2104.0,155.006,130.13,24.876000000000005,24.88470812383278,0.9784893239884057
36.0,31.733333333333338,2164.0,154.103,130.022,24.081000000000017,24.08967072063609,0.9472277312331997
37.0,32.733333333333334,2224.0,151.727,127.57,24.15700000000001,24.165939743750616,0.9502266984904092
38.0,33.733333333333334,2284.0,154.201,129.721,24.47999999999999,24.489304167679887,0.9629416813223524
39.0,34.733333333333334,2344.0,151.647,127.803,23.843999999999994,23.85330097357195,0.9379334581050937
40.0,35.733333333333334,2404.0,152.863,127.527,25.336,25.346136427150277,0.9966331039489927
41.0,36.733333333333334,2464.0,154.382,129.686,24.695999999999998,24.706127435982506,0.9714673691532334
42.0,37.733333333333334,2524.0,154.773,129.719,25.054000000000002,25.0645248900722,0.9855598825484588
43.0,38.733333333333334,2584.0,152.655,127.623,25.031999999999996,25.042766074540136,0.984704306160148
44.0,39.733333333333334,2644.0,151.991,127.62,24.37100000000001,24.38172559945885,0.9587115943158897
45.0,40.733333333333334,2704.0,151.623,127.557,24.06599999999999,24.07683213704803,0.9467229064663776
46.0,41.733333333333334,2764.0,153.645,129.643,24.00200000000001,24.013043459801032,0.9442146777434636
47.0,42.733333333333334,2824.0,153.632,129.343,24.289000000000016,24.300418513140407,0.9555145258378791
48.0,43.733333333333334,2884.0,152.103,127.539,24.564000000000007,24.575793550225626,0.9663425223946374
49.0,44.733333333333334,2944.0,152.249,127.483,24.76599999999999,24.778138313643968,0.9742989022639349
50.0,45.733333333333334,3004.0,153.38,129.655,23.724999999999994,23.736865466119326,0.9333551082040775
51.0,46.733333333333334,3064.0,153.85,129.527,24.323000000000008,24.33540789374397,0.9568903400609425
52.0,47.733333333333334,3124.0,151.386,127.172,24.214,24.22659455430032,0.9526117007285742
53.0,48.733333333333334,3184.0,153.394,129.237,24.15700000000001,24.169806603450144,0.9503787469257181
54.0,49.733333333333334,3244.0,150.952,127.068,23.884,23.896900842914096,0.9396478445654967
55.0,50.733333333333334,3304.0,152.822,128.952,23.870000000000005,23.88313211099949,0.9391064455217041
56.0,51.733333333333334,3364.0,152.892,128.78,24.111999999999995,24.125506501467438,0.9486368266819295
57.0,52.733333333333334,3424.0,150.944,126.925,24.01899999999999,24.032694732628006,0.9449873836385173
58.0,53.733333333333334,3484.0,153.223,128.851,24.372000000000014,24.386139860163073,0.9588851670558587
59.0,54.733333333333334,3544.0,150.645,126.864,23.781000000000006,23.795034929897195,0.9356423843499554
60.0,55.733333333333334,3604.0,151.042,126.815,24.227000000000004,24.241540561732307,0.9531993913149245
61.0,56.733333333333334,3664.0,152.808,128.807,24.001000000000005,24.015645076294156,0.9443169756667893
62.0,57.733333333333334,3724.0,150.809,126.769,24.039999999999992,24.05490942144304,0.9458608853783435
63.0,58.733333333333334,3784.0,150.646,126.62,24.025999999999982,24.04114114896111,0.945319504399861
64.0,59.733333333333334,3844.0,150.971,126.477,24.494,24.50968117744153,0.9637429238527994
65.0,60.733333333333334,3904.0,150.453,126.51,23.942999999999998,23.958568009054815,0.9420726535449326
66.0,61.733333333333334,3964.0,150.635,126.77,23.864999999999995,23.880756098940697,0.9390130185696327
67.0,62.733333333333334,4024.0,152.977,128.379,24.598000000000013,24.614486182254346,0.9678639518270709
68.0,63.73333333333333,4084.0,150.509,126.541,23.96799999999999,23.984303782657854,0.9430846075365102
69.0,64.73333333333333,4144.0,152.058,128.507,23.550999999999988,23.567255797605213,0.9266859019967792
70.0,65.73333333333333,4204.0,152.676,128.392,24.283999999999992,24.30100475096847,0.955537577241706
71.0,66.73333333333333,4264.0,152.194,128.223,23.970999999999975,23.988025453320695,0.9432309470070345
72.0,67.73333333333333,4324.0,152.504,128.655,23.84899999999999,23.866177463144655,0.9384397733696587
73.0,68.73333333333333,4384.0,151.871,128.27,23.601,23.618235020016925,0.9286904513218853
74.0,69.73333333333333,4444.0,151.972,128.357,23.61500000000001,23.632481567382197,0.9292506385031551
75.0,70.73333333333333,4504.0,150.241,126.381,23.860000000000014,23.877901712302982,0.9389007814946531
76.0,71.73333333333333,4564.0,150.165,126.216,23.948999999999998,23.967208158223706,0.9424123920573297
77.0,72.73333333333333,4624.0,150.67,126.544,24.12599999999999,24.144584173988765,0.9493869780920152
78.0,73.73333333333333,4684.0,152.599,128.55,24.048999999999978,24.06776553760823,0.9463663995420217
79.0,74.73333333333333,4744.0,154.176,130.464,23.71199999999999,23.730739881278463,0.9331142446448129
80.0,75.73333333333333,4804.0,152.371,128.357,24.01400000000001,24.033218886529614,0.9450079938459708
81.0,76.73333333333333,4864.0,152.088,128.117,23.971000000000004,23.99042437581018,0.9433252748180481
82.0,77.73333333333333,4924.0,150.734,126.118,24.616000000000014,24.63619339816176,0.968717499271277
83.0,78.73333333333333,4984.0,150.632,126.499,24.13300000000001,24.15303870491216,0.9497194179264189
84.0,79.73333333333333,5044.0,150.372,126.662,23.710000000000008,23.72992476723067,0.9330821936201583
85.0,80.73333333333333,5104.0,152.039,128.302,23.736999999999995,23.757185027421343,0.9341540918089167
86.0,81.73333333333333,5164.0,149.791,126.412,23.37899999999999,23.399114588033115,0.9200744369287511
87.0,82.73333333333333,5224.0,149.987,126.24,23.747,23.76766887965896,0.9345663264004471
88.0,83.73333333333333,5284.0,150.39,126.545,23.844999999999985,23.865992835492865,0.9384325136427094
89.0,84.73333333333333,5344.0,152.049,128.375,23.674000000000007,23.695079238869898,0.9317120357979295
90.0,85.73333333333333,5404.0,152.14,128.511,23.62899999999999,23.65027567261656,0.9299503188817678
91.0,86.73333333333333,5464.0,152.016,128.408,23.608000000000004,23.629493057858127,0.9291331275944723
92.0,87.73333333333333,5524.0,149.658,126.216,23.441999999999993,23.463576563697426,0.9226091403569308
93.0,88.73333333333333,5584.0,149.45,126.271,23.178999999999988,23.200566496866625,0.912267345660575
94.0,89.73333333333333,5644.0,153.669,130.357,23.312000000000012,23.333923582469463,0.9175110673828166
95.0,90.73333333333333,5704.0,151.456,127.956,23.499999999999986,23.522335607733837,0.9249195993340377
96.0,91.73333333333333,5764.0,151.747,128.109,23.638000000000005,23.660703375876807,0.930360345644513
97.0,92.73333333333333,5824.0,149.298,125.923,23.375,23.397684750325237,0.9200182144114835
98.0,93.73333333333333,5884.0,149.401,125.679,23.72200000000001,23.74525895502648,0.9336851478109636
99.0,94.73333333333333,5944.0,149.379,125.763,23.615999999999985,23.639391416840827,0.929522340059468
100.0,95.73333333333333,6004.0,151.668,127.736,23.932000000000002,23.955943969989665,0.9419694739457104
101.0,96.73333333333333,6064.0,151.639,127.903,23.736000000000004,23.759985470623704,0.9342642077790262
102.0,97.73333333333333,6124.0,150.756,127.583,23.173000000000002,23.19664851869421,0.9121132872004858
103.0,98.73333333333333,6184.0,151.221,127.506,23.715000000000003,23.73943903394187,0.933456303228202
104.0,99.73333333333333,6244.0,148.485,125.709,22.77600000000001,22.799699361531903,0.8965048858273742
105.0,100.73333333333333,6304.0,150.86,127.595,23.265000000000015,23.289441079321133,0.9157619749595369
106.0,101.73333333333333,6364.0,148.632,125.546,23.086,23.11048413429865,0.9087252253506325
107.0,102.73333333333333,6424.0,150.928,127.416,23.512,23.53717130424622,0.9255029523948435
108.0,103.73333333333333,6484.0,151.287,127.499,23.78800000000001,23.8137049181573,0.9363765052446266
109.0,104.73333333333333,6544.0,149.407,125.447,23.960000000000008,23.9861306386109,0.9431564411717541
110.0,105.73333333333333,6604.0,148.96,125.656,23.304000000000002,23.32964850409103,0.9173429674183045
111.0,106.73333333333333,6664.0,149.244,125.344,23.900000000000006,23.926543729044248,0.940813429770122
112.0,107.73333333333333,6724.0,148.698,125.501,23.197000000000003,23.22299519459161,0.9131492624251057
113.0,108.73333333333333,6784.0,151.09,127.397,23.692999999999998,23.719788222495218,0.9326836154750414
114.0,109.73333333333333,6844.0,150.389,127.376,23.013000000000005,23.039249779531488,0.9059242258253815
115.0,110.73333333333333,6904.0,151.257,127.437,23.820000000000007,23.847408757014616,0.9377017707986849
116.0,111.73333333333333,6964.0,152.452,129.649,22.802999999999997,22.829466827792302,0.8976753696358658
117.0,112.73333333333333,7024.0,148.294,125.282,23.012000000000015,23.038939796707933,0.9059120370192295
118.0,113.73333333333333,7084.0,150.392,127.465,22.926999999999992,22.954069828057545,0.9025748727720788
119.0,114.73333333333333,7144.0,150.677,127.366,23.310999999999993,23.338756601902617,0.9177011060963284
120.0,115.73333333333333,7204.0,148.676,125.219,23.456999999999994,23.485165295797636,0.9234580289102295
121.0,116.73333333333333,7264.0,150.485,127.563,22.92200000000001,22.949752406820114,0.9024051078478946
122.0,117.73333333333333,7324.0,148.753,125.376,23.37699999999998,23.405537344240386,0.9203269855360373
123.0,118.73333333333333,7384.0,150.669,127.123,23.546000000000006,23.574979398676614,0.9269896010055643
124.0,119.73333333333333,7444.0,150.382,127.209,23.173000000000002,23.201752342768383,0.9123139741984301
125.0,120.73333333333333,7504.0,148.209,125.049,23.159999999999997,23.188968101291415,0.9118112862127703
126.0,121.73333333333333,7564.0,150.528,127.169,23.358999999999995,23.388450890164446,0.9196551306436701
127.0,122.73333333333333,7624.0,150.525,127.162,23.363,23.392689859069943,0.9198218107509114
128.0,123.73333333333333,7684.0,150.378,127.517,22.86099999999999,22.890280815724246,0.9000666308732671
129.0,124.73333333333333,7744.0,150.25,127.097,23.153000000000006,23.182886642740044,0.9115721577392843
130.0,125.73333333333333,7804.0,148.455,125.197,23.25800000000001,23.288255061529085,0.9157153396627996
131.0,126.73333333333333,7864.0,149.862,127.152,22.709999999999994,22.739769594827305,0.8941483929716912
132.0,127.73333333333333,7924.0,150.026,126.997,23.02900000000001,23.059418351695385,0.9067172724001797
133.0,128.73333333333332,7984.0,150.203,127.108,23.095,23.125736785431453,0.9093249734457961
134.0,129.73333333333332,8044.0,149.64,127.202,22.437999999999988,22.46808707383743,0.8834655895013847
135.0,130.73333333333332,8104.0,149.837,126.846,22.990999999999985,23.022058809979665,0.9052482612895805
136.0,131.73333333333332,8164.0,147.672,124.626,23.045999999999992,23.077363882605944,0.9074229069739069
137.0,132.73333333333332,8224.0,147.23,124.918,22.311999999999983,22.342588388261664,0.8785308672052908
138.0,133.73333333333332,8284.0,147.981,124.721,23.25999999999999,23.292120958363665,0.9158673502373843
139.0,134.73333333333332,8344.0,148.744,126.804,21.939999999999998,21.970517804960824,0.8639007139514002
140.0,135.73333333333332,8404.0,147.678,124.812,22.866,22.898034819141046,0.9003715253298848
141.0,136.73333333333332,8464.0,149.714,126.811,22.90299999999999,22.935316007431275,0.9018374555126325
142.0,137.73333333333332,8524.0,147.667,124.806,22.861000000000004,22.893485679373683,0.9001926490226545
143.0,138.73333333333332,8584.0,149.471,127.155,22.316000000000003,22.34793470787419,0.8787410893480403
144.0,139.73333333333332,8644.0,149.605,127.058,22.546999999999983,22.579491067954454,0.8878460957283705
145.0,140.73333333333332,8704.0,149.011,126.935,22.075999999999993,22.108033418615967,0.8693079527734784
146.0,141.73333333333332,8764.0,148.882,126.728,22.15400000000001,22.18636846322845,0.8723881578723705
147.0,142.73333333333332,8824.0,148.839,126.956,21.882999999999996,21.91519166507691,0.86172523988337
148.0,143.73333333333332,8884.0,146.717,124.801,21.91600000000001,21.94845969424878,0.8630333690047894
149.0,144.73333333333332,8944.0,148.83,126.858,21.97200000000001,22.004762682136832,0.8652472536235263
150.0,145.73333333333332,9004.0,147.142,124.929,22.212999999999994,22.246344502124494,0.8747464701926458
151.0,146.73333333333332,9064.0,148.769,126.592,22.177000000000007,22.210512565619386,0.8733375259063152
152.0,147.73333333333332,9124.0,149.159,126.861,22.297999999999988,22.331918731705596,0.8781113266192095
153.0,148.73333333333332,9184.0,147.128,124.672,22.45599999999999,22.490383977034966,0.8843423239853988
154.0,149.73333333333332,9244.0,147.208,124.746,22.462000000000003,22.496618129117728,0.8845874565072169
155.0,150.73333333333332,9304.0,148.593,126.61,21.98299999999999,22.017100070727686,0.8657323709478675
156.0,151.73333333333332,9364.0,148.646,126.84,21.805999999999983,21.840043907343606,0.8587703617992954
157.0,152.73333333333332,9424.0,148.523,126.834,21.688999999999993,21.723078474602552,0.8541711747546544
158.0,153.73333333333332,9484.0,146.929,124.757,22.171999999999997,22.207059449671704,0.8732017462510954
159.0,154.73333333333332,9544.0,148.798,126.636,22.162000000000006,22.197265608729364,0.8728166435303709
160.0,155.73333333333332,9604.0,146.293,124.743,21.55000000000001,21.584507598717362,0.8487224420632904
161.0,156.73333333333332,9664.0,150.384,128.509,21.875,21.910247116314963,0.861530815735358
162.0,157.73333333333332,9724.0,147.68,126.265,21.415000000000006,21.449720415943567,0.8434224876214571
163.0,158.73333333333332,9784.0,146.16,124.493,21.667,21.702346009171574,0.8533559553844605
164.0,159.73333333333332,9844.0,148.942,126.446,22.49600000000001,22.53292370916569,0.8860150248878207
165.0,160.73333333333332,9904.0,146.0,124.441,21.558999999999997,21.594601713336363,0.8491193518176928
166.0,161.73333333333332,9964.0,148.128,126.46,21.667999999999992,21.70399875069656,0.8534209426822605
167.0,162.73333333333332,10024.0,147.935,126.157,21.778000000000006,21.814399645244205,0.8577620061231526
168.0,163.73333333333332,10084.0,146.221,124.37,21.851,21.88774053340669,0.8606458364546842
169.0,164.73333333333332,10144.0,147.77,126.486,21.284000000000006,21.320000371745742,0.8383217776704607
170.0,165.73333333333332,10204.0,145.29,124.426,20.86399999999999,20.899498965571393,0.8217872804757899
171.0,166.73333333333332,10264.0,145.234,124.47,20.76400000000001,20.799536815317673,0.8178566779411147
172.0,167.73333333333332,10324.0,145.744,124.239,21.504999999999995,21.542020428441685,0.8470518079407462
173.0,168.73333333333332,10384.0,146.052,124.392,21.659999999999997,21.697504231806644,0.8531655723011172
174.0,169.73333333333332,10444.0,145.42,124.313,21.106999999999985,21.143758150316682,0.8313917734587908
175.0,170.73333333333332,10504.0,147.9,126.269,21.631,21.668887391798645,0.8520403321618811
176.0,171.73333333333332,10564.0,145.465,124.305,21.159999999999997,21.197274391843056,0.8334960806796334
177.0,172.73333333333332,10624.0,147.865,126.388,21.477000000000004,21.515047952504602,0.8459912256902076
178.0,173.73333333333332,10684.0,147.904,126.152,21.751999999999995,21.790753039973477,0.8568322001278066
179.0,174.73333333333332,10744.0,147.683,126.179,21.50399999999999,21.54252663104785,0.8470717122869592
180.0,175.73333333333332,10804.0,147.512,126.063,21.448999999999998,21.48764296823781,0.8449136368193362
181.0,176.73333333333332,10864.0,146.005,124.125,21.879999999999995,21.91963866216757,0.8619000998477854
182.0,177.73333333333332,10924.0,144.875,124.435,20.439999999999998,20.477234673274666,0.8051834649977151
183.0,178.73333333333332,10984.0,147.753,126.325,21.427999999999983,21.467249142011468,0.8441117330502242
184.0,179.73333333333332,11044.0,145.371,124.294,21.077000000000012,21.11581738103889,0.8302931170346811
185.0,180.73333333333332,11104.0,147.89,126.172,21.71799999999999,21.758215487856464,0.8555527940276112
186.0,181.73333333333332,11164.0,145.753,124.573,21.179999999999993,21.2194314598896,0.8343673167185107
187.0,182.73333333333332,11224.0,147.666,126.331,21.334999999999994,21.374933776443935,0.840481809034302
188.0,183.73333333333332,11284.0,147.259,126.173,21.085999999999984,21.125678966541756,0.8306808835330517
189.0,184.73333333333332,11344.0,145.238,124.271,20.967,21.00666510171381,0.8260011502783461
190.0,185.73333333333332,11404.0,145.152,124.222,20.929999999999993,20.96980480258784,0.8245517698397933
191.0,186.73333333333332,11464.0,145.297,124.322,20.974999999999994,21.015100533818895,0.8263328391298681
192.0,187.73333333333332,11524.0,145.086,124.324,20.762000000000015,20.801901333022027,0.8179496529247303
193.0,188.73333333333332,11584.0,146.619,126.142,20.477000000000004,20.51655877193555,0.80672972427163
194.0,189.73333333333332,11644.0,144.628,124.199,20.428999999999988,20.468670728164245,0.8048467228981064
