"Frame","Time (aligned)","Time [ s]","Intensity Ch3-T2","background","Intensity (bg-subst)","bleach-Corrected","Normalized"
1.0,-5.36666666666667,0.0,262.052,247.068,14.984,15.0337637275575,0.99745319325293
2.0,-4.36666666666667,60.0,254.633,239.765,14.868,14.9661978968433,0.992970366808267
3.0,-3.36666666666667,120.0,255.137,240.161,14.976,15.1235255790864,1.00340867100703
4.0,-2.36666666666667,180.0,253.923,238.959,14.964,15.1594271582634,1.00579065235527
5.0,-0.333333333333333,302.0,252.756,237.919,14.837,15.0778335372503,1.0003771165765
6.0,0.666666666666667,362.0,279.219,263.932,15.287,15.5830703654178,1.03389833566291
7.0,1.66666666666667,422.0,274.328,258.537,15.791,16.1457699668896,1.07123206821994
8.0,2.66666666666667,482.0,269.666,255.077,14.589,14.9614516382352,0.992655464240261
9.0,3.66666666666667,542.0,266.884,250.901,15.983,16.4394236129119,1.09071526432727
10.0,4.66666666666667,602.0,265.502,249.736,15.766,16.263393044007,1.07903606966609
11.0,5.66666666666667,662.0,264.041,247.838,16.203,16.7620818816827,1.11212284571189
12.0,6.66666666666667,722.0,262.72,246.796,15.924,16.5199753662611,1.09605967475278
13.0,7.66666666666667,782.0,261.231,245.647,15.584,16.2122369914602,1.07564199158347
14.0,8.66666666666667,842.0,258.214,242.27,15.944,16.6322271844231,1.10350730639734
15.0,9.66666666666667,902.0,257.812,243.538,14.274,14.9303688367574,0.9905931969231
16.0,10.6666666666667,962.0,256.811,242.017,14.794,15.515473774243,1.02941346833745
17.0,11.6666666666667,1022.0,255.576,241.722,13.854,14.5677443633063,0.966533956299776
18.0,12.6666666666667,1082.0,254.435,241.17,13.265,13.9844521211276,0.927833952754138
19.0,13.6666666666667,1142.0,252.714,240.418,12.296,12.9959117573141,0.862246734515647
20.0,14.6666666666667,1202.0,251.158,239.921,11.237,11.9064378674827,0.789962825437974
21.0,15.6666666666667,1262.0,249.861,239.214,10.647,11.3091876903465,0.750336747288069
22.0,16.6666666666667,1322.0,247.472,238.386,9.08600000000001,9.67462056693355,0.641887244796161
23.0,17.6666666666667,1382.0,243.772,235.838,7.934,8.46827707572499,0.56184932553179
24.0,18.6666666666667,1442.0,243.709,236.7,7.00900000000001,7.49869033645264,0.497519633596421
25.0,19.6666666666667,1502.0,240.874,234.587,6.28700000000001,6.74193240005426,0.447310608507353
26.0,20.6666666666667,1562.0,240.344,235.211,5.13299999999998,5.51707746475022,0.366044500523286
27.0,21.6666666666667,1622.0,240.47,234.48,5.99000000000001,6.45278307175337,0.428126262786128
28.0,22.6666666666667,1682.0,241.124,236.062,5.06199999999998,5.46525685681343,0.362606330827423
29.0,23.6666666666667,1742.0,239.483,235.249,4.23400000000001,4.58135007101996,0.303961292764764
30.0,24.6666666666667,1802.0,238.847,235.296,3.55100000000002,3.85064694318618,0.255480940047652
31.0,25.6666666666667,1862.0,241.568,238.69,2.87800000000001,3.12752405083899,0.207503517283993
32.0,26.6666666666667,1922.0,241.557,239.044,2.51299999999998,2.73662852754212,0.181568562138593
33.0,27.6666666666667,1982.0,241.406,238.555,2.851,3.11114991498135,0.206417133701416
34.0,28.6666666666667,2042.0,238.791,235.711,3.07999999999998,3.36792085369719,0.22345325302576
35.0,29.6666666666667,2102.0,237.627,234.296,3.33100000000002,3.64972817698751,0.242150474798824
36.0,30.6666666666667,2162.0,234.078,231.274,2.804,3.07840757370139,0.204244760006038
37.0,31.6666666666667,2222.0,236.226,233.147,3.07900000000001,3.38694167988938,0.224715237992899
38.0,32.6666666666667,2282.0,234.598,231.344,3.25400000000002,3.5863560011577,0.237945887026238
39.0,33.6666666666667,2342.0,234.69,232.088,2.602,2.87322117834629,0.190631148074393
40.0,34.6666666666667,2402.0,236.723,234.105,2.61800000000002,2.8963138450765,0.19216328963177
41.0,35.6666666666667,2462.0,236.627,234.137,2.49000000000001,2.75980262710195,0.183106106563635
42.0,36.6666666666667,2522.0,235.067,231.931,3.136,3.48213903009287,0.23103134769573
43.0,37.6666666666667,2582.0,236.22,233.329,2.89099999999999,3.21586928035363,0.213365005656762
44.0,38.6666666666667,2642.0,233.466,230.703,2.76300000000001,3.07893467225013,0.204279731696436
45.0,39.6666666666667,2702.0,235.133,232.197,2.93600000000001,3.27743561782349,0.217449780502174
46.0,40.6666666666667,2762.0,234.747,231.745,3.00200000000001,3.35688720977989,0.222721197929114
47.0,41.6666666666667,2822.0,232.005,229.45,2.55500000000001,2.86190031514414,0.189880036685655
48.0,42.6666666666667,2882.0,232.283,229.669,2.61399999999998,2.93289480478075,0.194590346204595
49.0,43.6666666666667,2942.0,232.078,228.934,3.14400000000001,3.53338276910909,0.234431243559615
50.0,44.6666666666667,3002.0,231.924,228.907,3.017,3.39618092211102,0.225328238956878
51.0,45.6666666666667,3062.0,233.222,230.442,2.78,3.1344254299677,0.207961406790209
52.0,46.6666666666667,3122.0,231.74,228.815,2.92500000000001,3.30314090873654,0.219155263238857
53.0,47.6666666666667,3182.0,231.267,228.663,2.60399999999998,2.9452414438375,0.195409515294669
54.0,48.6666666666667,3242.0,233.498,230.201,3.297,3.73480845062079,0.247795341390867
55.0,49.6666666666667,3302.0,232.685,230.229,2.45599999999999,2.78636585062784,0.184868511015984
56.0,50.6666666666667,3362.0,230.751,227.663,3.08799999999999,3.50863784100485,0.232789478529801
57.0,51.6666666666667,3422.0,230.4,227.294,3.10599999999999,3.53431631682445,0.234493182151083
58.0,52.6666666666667,3482.0,231.961,229.27,2.691,3.06656210535668,0.20345884235826
59.0,53.6666666666667,3542.0,232.036,228.547,3.489,3.98166463351669,0.264173641087861
60.0,54.6666666666667,3602.0,229.48,225.883,3.59699999999998,4.11075385684943,0.272738393092827
61.0,55.6666666666667,3662.0,230.743,227.518,3.22499999999999,3.69079489658663,0.244875150491677
62.0,56.6666666666667,3722.0,228.644,225.247,3.39699999999999,3.89302210339562,0.258292427552144
63.0,57.6666666666667,3782.0,230.14,227.012,3.12799999999999,3.58964342526694,0.238163999518543
64.0,58.6666666666667,3842.0,229.813,226.734,3.07899999999998,3.53817858443592,0.234749434093848
65.0,59.6666666666667,3902.0,228.738,225.623,3.11500000000001,3.58431354525585,0.237810375107979
66.0,60.6666666666667,3962.0,228.946,225.509,3.43700000000001,3.96002454298077,0.262737874383095
67.0,61.6666666666667,4022.0,225.722,222.572,3.15000000000001,3.63405884160582,0.241110852991813
68.0,62.6666666666667,4082.0,227.295,223.981,3.31399999999999,3.82815702539257,0.253988789397572
69.0,63.6666666666667,4142.0,224.727,221.566,3.161,3.6560361710699,0.2425689946688
70.0,64.6666666666667,4202.0,223.174,221.029,2.14500000000001,2.48401988787527,0.164808601103878
71.0,65.6666666666667,4262.0,NA,227.091,-227.091,-263.307141476886,-17.4697802780416
72.0,66.6666666666667,4322.0,NA,226.02,-226.02,-262.384279121364,-17.40855063388
73.0,67.6666666666667,4382.0,NA,225.665,-225.665,-262.2870033728,-17.4020966275653
74.0,68.6666666666667,4442.0,NA,222.981,-222.981,-259.475027625814,-17.2155289630063
75.0,69.6666666666667,4502.0,NA,224.053,-224.053,-261.028091876559,-17.3185709506487
76.0,70.6666666666667,4562.0,NA,221.633,-221.633,-258.507671409856,-17.1513472607988
77.0,71.6666666666667,4622.0,NA,221.51,-221.51,-258.659678221557,-17.1614325383431
78.0,72.6666666666667,4682.0,NA,131.048,-131.048,-153.199076997934,-10.1643814100181
79.0,73.6666666666667,4742.0,NA,128.724,-128.724,-150.650199914374,-9.99526969373212
80.0,74.6666666666667,4802.0,NA,128.642,-128.642,-150.720244023631,-9.99991694785374
81.0,75.6666666666667,4862.0,NA,130.871,-130.871,-153.498853379729,-10.184270834563
82.0,76.6666666666667,4922.0,NA,130.84,-130.84,-153.627708633803,-10.1928200632839
83.0,77.6666666666667,4982.0,NA,128.715,-128.715,-151.293397654978,-10.0379442795434
84.0,78.6666666666667,5042.0,NA,130.745,-130.745,-153.841071552846,-10.2069761674224
85.0,79.6666666666667,5102.0,NA,130.875,-130.875,-154.154066476734,-10.2277426096761
86.0,80.6666666666667,5162.0,NA,128.907,-128.907,-151.991977351856,-10.0842933217407
87.0,81.6666666666667,5222.0,NA,130.572,-130.572,-154.111474674508,-10.2249167485074
88.0,82.6666666666667,5282.0,NA,128.597,-128.597,-151.932781849145,-10.0803658459419
89.0,83.6666666666667,5342.0,NA,128.555,-128.555,-152.033896435927,-10.0870745497168
90.0,84.6666666666667,5402.0,NA,130.621,-130.621,-154.628811044763,-10.2592407424086
91.0,85.6666666666667,5462.0,NA,128.31,-128.31,-152.040441740656,-10.0875088145637
92.0,86.6666666666667,5522.0,NA,130.832,-130.832,-155.177638027382,-10.2956540608748
93.0,87.6666666666667,5582.0,NA,130.7,-130.7,-155.168192869411,-10.295027397908
94.0,88.6666666666667,5642.0,NA,131.081,-131.081,-155.766593187564,-10.3347297850815
95.0,89.6666666666667,5702.0,NA,130.921,-130.921,-155.720910993624,-10.3316988840346
96.0,90.6666666666667,5762.0,NA,128.938,-128.938,-153.503140202347,-10.1845552546846
97.0,91.6666666666667,5822.0,NA,129.039,-129.039,-153.762978419945,-10.2017948804077
98.0,92.6666666666667,5882.0,NA,128.836,-128.836,-153.659108973854,-10.1949033985033
99.0,93.6666666666667,5942.0,NA,128.316,-128.316,-153.175065957321,-10.1627883366157
100.0,94.6666666666667,6002.0,NA,128.213,-128.213,-153.186850714014,-10.163570226195
101.0,95.6666666666667,6062.0,NA,130.307,-130.307,-155.824372247078,-10.3385632833631
102.0,96.6666666666667,6122.0,NA,128.413,-128.413,-153.691896691275,-10.1970787827938
103.0,97.6666666666667,6182.0,NA,130.722,-130.722,-156.588980453682,-10.3892931545441
104.0,98.6666666666667,6242.0,NA,128.408,-128.408,-153.947058647336,-10.2140081500821
105.0,99.6666666666667,6302.0,NA,130.141,-130.141,-156.15525014096,-10.3605162166278
106.0,100.666666666667,6362.0,NA,130.116,-130.116,-156.254558259159,-10.3671050656618
107.0,101.666666666667,6422.0,NA,130.2,-130.2,-156.483657091039,-10.3823052088575
108.0,102.666666666667,6482.0,NA,128.405,-128.405,-154.451626342748,-10.2474849738583
109.0,103.666666666667,6542.0,NA,128.105,-128.105,-154.2147021579,-10.231765637768
110.0,104.666666666667,6602.0,NA,127.755,-127.755,-153.915875475746,-10.2119392234553
111.0,105.666666666667,6662.0,NA,130.253,-130.253,-157.049219899957,-10.4198289081762
112.0,106.666666666667,6722.0,NA,128.147,-128.147,-154.630733993818,-10.259368325342
113.0,107.666666666667,6782.0,NA,128.244,-128.244,-154.8676119003,-10.2750845909766
114.0,108.666666666667,6842.0,NA,128.486,-128.486,-155.278895447314,-10.3023722412774
115.0,109.666666666667,6902.0,NA,128.129,-128.129,-154.96517201005,-10.2815574639556
116.0,110.666666666667,6962.0,NA,130.108,-130.108,-157.477216374493,-10.4482254200519
117.0,111.666666666667,7022.0,NA,128.139,-128.139,-155.209820825488,-10.2977893102588
118.0,112.666666666667,7082.0,NA,128.051,-128.051,-155.21801004406,-10.29833264474
119.0,113.666666666667,7142.0,NA,128.075,-128.075,-155.360981440499,-10.307818444737
120.0,114.666666666667,7202.0,NA,128.013,-128.013,-155.398692081046,-10.3103204528511
121.0,115.666666666667,7262.0,NA,130.026,-130.026,-157.95612390993,-10.479999755418
122.0,116.666666666667,7322.0,NA,129.722,-129.722,-157.69946626076,-10.462971152576
123.0,117.666666666667,7382.0,NA,130.039,-130.039,-158.196882633299,-10.4959735036942
124.0,118.666666666667,7442.0,NA,127.744,-127.744,-155.514168609238,-10.3179820360634
125.0,119.666666666667,7502.0,NA,127.292,-127.292,-155.071933417527,-10.2886408203748
126.0,120.666666666667,7562.0,NA,127.495,-127.495,-155.426625919876,-10.3121737942529
127.0,121.666666666667,7622.0,NA,127.42,-127.42,-155.441730478037,-10.3131759444825
128.0,122.666666666667,7682.0,NA,129.543,-129.543,-158.139133495781,-10.4921419906634
129.0,123.666666666667,7742.0,NA,129.143,-129.143,-157.757250946102,-10.4668050241174
130.0,124.666666666667,7802.0,NA,126.911,-126.911,-155.134537414649,-10.2927944413823
131.0,125.666666666667,7862.0,NA,127.037,-127.037,-155.391760465339,-10.3098605572224
132.0,126.666666666667,7922.0,NA,126.809,-126.809,-155.215170150282,-10.2981442247828
133.0,127.666666666667,7982.0,NA,128.98,-128.98,-157.975825226027,-10.4813068892143
134.0,128.666666666667,8042.0,NA,128.752,-128.752,-157.799019395163,-10.4695762578316
135.0,129.666666666667,8102.0,NA,126.74,-126.74,-155.433275218122,-10.3126149588135
136.0,130.666666666667,8162.0,NA,126.702,-126.702,-155.486149304801,-10.3161230242291
137.0,131.666666666667,8222.0,NA,126.857,-126.857,-155.775307859527,-10.3353079821009
138.0,132.666666666667,8282.0,NA,126.625,-126.625,-155.58854620073,-10.3229168060574
139.0,133.666666666667,8342.0,NA,128.581,-128.581,-158.090954955678,-10.4889454631974
140.0,134.666666666667,8402.0,NA,126.313,-126.313,-155.399080964331,-10.3103462542992
141.0,135.666666666667,8462.0,NA,126.348,-126.348,-155.538207186422,-10.3195769364494
142.0,136.666666666667,8522.0,NA,126.584,-126.584,-155.924383964077,-10.3451988144444
143.0,137.666666666667,8582.0,NA,128.474,-128.474,-158.34895108352,-10.5060628708025
144.0,138.666666666667,8642.0,NA,128.417,-128.417,-158.374566900898,-10.5077624171905
145.0,139.666666666667,8702.0,NA,128.433,-128.433,-158.489614162289,-10.5153955196078
146.0,140.666666666667,8762.0,NA,125.937,-125.937,-155.502402525093,-10.3172013853617
147.0,141.666666666667,8822.0,NA,128.126,-128.126,-158.299286164713,-10.5027677257706
148.0,142.666666666667,8882.0,NA,126.163,-126.163,-155.966025819031,-10.3479616489514
149.0,143.666666666667,8942.0,NA,128.26,-128.26,-158.651417409186,-10.5261307664974
150.0,144.666666666667,9002.0,NA,125.894,-125.894,-155.815593477743,-10.3379808336409
151.0,145.666666666667,9062.0,NA,128.195,-128.195,-158.755437539912,-10.5330322459563
152.0,146.666666666667,9122.0,NA,125.878,-125.878,-155.975898025016,-10.348616645502
153.0,147.666666666667,9182.0,NA,126.209,-126.209,-156.475610369453,-10.3817713287004
154.0,148.666666666667,9242.0,NA,125.765,-125.765,-156.013920173151,-10.3511393213774
155.0,149.666666666667,9302.0,NA,128.262,-128.262,-159.201579834786,-10.562632688316
156.0,150.666666666667,9362.0,NA,128.122,-128.122,-159.117335767165,-10.5570433019332
157.0,151.666666666667,9422.0,NA,125.924,-125.924,-156.475144755574,-10.3817404363663
158.0,152.666666666667,9482.0,NA,126.168,-126.168,-156.865629694807,-10.4076481502705
159.0,153.666666666667,9542.0,NA,126.143,-126.143,-156.921391781318,-10.4113478273613
160.0,154.666666666667,9602.0,NA,128.215,-128.215,-159.586799658556,-10.5881910747778
161.0,155.666666666667,9662.0,NA,126.012,-126.012,-156.930697889269,-10.4119652647018
162.0,156.666666666667,9722.0,NA,125.691,-125.691,-156.616249568722,-10.3911023931596
163.0,157.666666666667,9782.0,NA,126.034,-126.034,-157.128795979262,-10.425108585032
164.0,158.666666666667,9842.0,NA,128.159,-128.159,-159.864269719658,-10.6066005298879
165.0,159.666666666667,9902.0,NA,126.131,-126.131,-157.41902053507,-10.4443642694499
166.0,160.666666666667,9962.0,NA,128.047,-128.047,-159.89566869681,-10.6086837746823
167.0,161.666666666667,10022.0,NA,127.749,-127.749,-159.608348381641,-10.5896207794772
168.0,162.666666666667,10082.0,NA,126.147,-126.147,-157.690206883541,-10.4623568157046
169.0,163.666666666667,10142.0,NA,128.41,-128.41,-160.603595794925,-10.6556529939278
170.0,164.666666666667,10202.0,NA,126.416,-126.416,-158.192549901132,-10.495686037587
171.0,165.666666666667,10262.0,NA,128.287,-128.287,-160.617608818794,-10.6565827235456
172.0,166.666666666667,10322.0,NA,128.466,-128.466,-160.925258274331,-10.6769945071408
173.0,167.666666666667,10382.0,NA,126.164,-126.164,-158.123336495167,-10.4910938985826
174.0,168.666666666667,10442.0,NA,128.07,-128.07,-160.594791668859,-10.655068861849
175.0,169.666666666667,10502.0,NA,125.781,-125.781,-157.805325630716,-10.4699946610275
176.0,170.666666666667,10562.0,NA,128.429,-128.429,-161.209761878068,-10.6958706204802
177.0,171.666666666667,10622.0,NA,126.107,-126.107,-158.37554706549,-10.5078274486969
178.0,172.666666666667,10682.0,NA,125.8,-125.8,-158.069968334826,-10.4875530525966
179.0,173.666666666667,10742.0,NA,126.269,-126.269,-158.739266101151,-10.5319593108268
180.0,174.666666666667,10802.0,NA,128.268,-128.268,-161.3332860464,-10.7040661447933
181.0,175.666666666667,10862.0,NA,128.308,-128.308,-161.464319205863,-10.7127598721724
182.0,176.666666666667,10922.0,NA,128.491,-128.491,-161.775173389897,-10.7333842816097
183.0,177.666666666667,10982.0,NA,126.418,-126.418,-159.244188351564,-10.5654596584541
184.0,178.666666666667,11042.0,NA,128.052,-128.052,-161.382242709961,-10.7073142988341
185.0,179.666666666667,11102.0,NA,128.233,-128.233,-161.68997566465,-10.7277316223924
186.0,180.666666666667,11162.0,NA,125.92,-125.92,-158.851435552983,-10.5394014776682
187.0,181.666666666667,11222.0,NA,126.192,-126.192,-159.272437565184,-10.5673339241963
188.0,182.666666666667,11282.0,NA,128.444,-128.444,-162.193801340761,-10.7611592150157
189.0,183.666666666667,11342.0,NA,126.46,-126.46,-159.766051797226,-10.6000840126577
190.0,184.666666666667,11402.0,NA,128.304,-128.304,-162.17417519646,-10.759857068683
191.0,185.666666666667,11462.0,NA,128.504,-128.504,-162.505333648082,-10.7818286162627
192.0,186.666666666667,11522.0,NA,127.9,-127.9,-161.819292624437,-10.7363114841501
193.0,187.666666666667,11582.0,NA,128.192,-128.192,-162.266466807588,-10.7659803897554
194.0,188.666666666667,11642.0,NA,127.975,-127.975,-162.069179296186,-10.752890849318
195.0,189.666666666667,11702.0,NA,126.221,-126.221,-159.924019733931,-10.610564796163
196.0,190.666666666667,11762.0,NA,128.015,-128.015,-162.274054740476,-10.7664838304124
197.0,191.666666666667,11822.0,NA,126.02,-126.02,-159.820771343546,-10.6037145197749
198.0,192.666666666667,11882.0,NA,126.077,-126.077,-159.968516747923,-10.6135170634396
199.0,193.666666666667,11942.0,NA,128.083,-128.083,-162.590229645596,-10.7874612565881
200.0,194.666666666667,12002.0,NA,126.228,-126.228,-160.310646083358,-10.6362165021376
201.0,195.666666666667,12062.0,NA,127.778,-127.778,-162.355079006273,-10.771859590875
202.0,196.666666666667,12122.0,NA,127.821,-127.821,-162.48548273184,-10.7805115568654
203.0,197.666666666667,12182.0,NA,127.751,-127.751,-162.472051950139,-10.7796204575813
204.0,198.666666666667,12242.0,NA,128.046,-128.046,-162.92278641545,-10.8095255791384
205.0,199.666666666667,12302.0,NA,125.703,-125.703,-160.015618536191,-10.6166421510735
206.0,200.666666666667,12362.0,NA,126.158,-126.158,-160.668936981295,-10.6599882206998
207.0,201.666666666667,12422.0,NA,128.081,-128.081,-163.193069543328,-10.8274581989314
208.0,202.666666666667,12482.0,NA,127.882,-127.882,-163.014333184164,-10.8155994817513
209.0,203.666666666667,12542.0,NA,128.331,-128.331,-163.661612036978,-10.8585448393054
210.0,204.666666666667,12602.0,NA,126.043,-126.043,-160.817151299816,-10.6698218756629
211.0,205.666666666667,12662.0,NA,127.77,-127.77,-163.09492144912,-10.820946314632
212.0,206.666666666667,12722.0,NA,125.774,-125.774,-160.62008732964,-10.6567471666353
213.0,207.666666666667,12782.0,NA,127.601,-127.601,-163.027190745327,-10.8164525492646
214.0,208.666666666667,12842.0,NA,125.723,-125.723,-160.700502432529,-10.6620825106394
215.0,209.666666666667,12902.0,NA,127.734,-127.734,-163.34472034869,-10.837519856332
216.0,210.666666666667,12962.0,NA,125.799,-125.799,-160.942756548214,-10.6781554745124
217.0,211.666666666667,13022.0,NA,125.891,-125.891,-161.132877372479,-10.6907695229107
218.0,212.666666666667,13082.0,NA,126.08,-126.08,-161.447191746898,-10.7116235074572
219.0,213.666666666667,13142.0,NA,127.74,-127.74,-163.646082898709,-10.8575145192315
220.0,214.666666666667,13202.0,NA,127.785,-127.785,-163.776877440471,-10.8661924149138
221.0,215.666666666667,13262.0,NA,128.009,-128.009,-164.137127294639,-10.8900941053967
222.0,216.666666666667,13322.0,NA,127.692,-127.692,-163.803524169873,-10.8679603597753
223.0,217.666666666667,13382.0,NA,125.766,-125.766,-161.404504594298,-10.708791320026
224.0,218.666666666667,13442.0,NA,125.564,-125.564,-161.216699320097,-10.696330902671
225.0,219.666666666667,13502.0,NA,127.567,-127.567,-163.860902442176,-10.8717672668127
226.0,220.666666666667,13562.0,NA,125.59,-125.59,-161.39267543792,-10.7080064846371
227.0,221.666666666667,13622.0,NA,125.809,-125.809,-161.745379055524,-10.7314075009112
