"Frame","Time (aligned)","Time [ s]","Intensity Ch3-T2","background","Intensity (bg-subst)","bleach-Corrected","Normalized"
1.0,-11.3,0.0,247.044,238.907,8.137,8.16402398899729,0.996465363394318
2.0,-8.8,150.0,242.225,234.581,7.64400000000001,7.69448592436574,0.939155583458455
3.0,-6.3,300.0,243.324,234.07,9.25400000000002,9.34515930214117,1.140629617519
4.0,-3.8,450.0,239.556,232.347,7.209,7.30314824805674,0.891390603791728
5.0,-0.333333333333333,658.0,240.223,231.9,8.32300000000001,8.4580985731977,1.0323588318365
6.0,1.9,792.0,261.167,252.93,8.23699999999997,8.39652977038964,1.02484401076952
7.0,4.4,942.0,259.852,251.482,8.36999999999998,8.55804538172794,1.04455790584907
8.0,6.9,1092.0,255.761,247.941,7.81999999999999,8.01964163486183,0.978842679387606
9.0,9.4,1242.0,252.867,245.371,7.49599999999998,7.71006190342158,0.941056719914083
10.0,11.9,1392.0,251.06,242.746,8.31399999999999,8.57629390890991,1.04678524193901
11.0,14.4,1542.0,249.287,240.843,8.44400000000002,8.73535884767815,1.06620001855243
12.0,16.9,1692.0,246.563,239.756,6.80699999999999,7.06176038169674,0.861927847644077
13.0,19.4,1842.0,243.979,237.183,6.79600000000002,7.06996679889399,0.862929487338625
14.0,21.9,1992.0,245.109,238.272,6.83700000000002,7.13212100225169,0.870515759858008
15.0,24.4,2142.0,243.049,237.21,5.839,6.10749780284619,0.745454695594373
16.0,26.9,2292.0,239.466,233.76,5.70600000000002,5.9842702011512,0.7304140689293
17.0,29.4,2442.0,237.449,233.433,4.01600000000002,4.22290034380239,0.515428902626469
18.0,31.9,2592.0,235.213,232.322,2.89099999999999,3.04779880001355,0.372001104222782
19.0,34.4,2742.0,235.137,233.317,1.81999999999999,1.92359786908845,0.234786013885927
20.0,36.9,2892.0,231.395,230.802,0.593000000000018,0.628327636861927,0.0766909465038468
21.0,39.4,3042.0,231.813,231.485,0.327999999999975,0.348399883763818,0.0425241789158303
22.0,41.9,3192.0,231.595,230.837,0.75800000000001,0.807105699948901,0.0985118215822375
23.0,44.4,3342.0,229.809,229.724,0.085000000000008,0.0907239162385545,0.0110733677761168
24.0,46.9,3492.0,229.057,228.787,0.269999999999982,0.288863802374386,0.035257463009955
25.0,49.4,3642.0,231.244,230.601,0.643000000000001,0.689527999560186,0.0841607973688337
26.0,51.9,3792.0,231.207,230.471,0.73599999999999,0.791071306069768,0.0965547330012741
27.0,54.4,3942.0,229.213,228.931,0.281999999999982,0.303787116232777,0.0370789379819774
28.0,56.9,4092.0,229.298,228.219,1.07900000000001,1.16495696335475,0.142189594909631
29.0,59.4,4242.0,227.713,227.27,0.442999999999984,0.479342957359888,0.0585065226216702
30.0,61.9,4392.0,230.33,229.261,1.06900000000002,1.15920630308816,0.141487694256225
31.0,64.4,4542.0,229.812,229.227,0.585000000000008,0.635719794906471,0.0775932012573915
32.0,66.9,4692.0,232.094,231.68,0.413999999999987,0.450841309352334,0.0550277350681965
33.0,69.4,4842.0,229.745,229.357,0.388000000000005,0.42340447808235,0.0516789144279486
34.0,71.9,4992.0,231.07,229.896,1.17400000000001,1.2837464552729,0.156688525141974
35.0,74.4,5142.0,227.982,227.04,0.942000000000007,1.03213567779113,0.125978004796223
36.0,76.9,5292.0,227.7,227.001,0.698999999999984,0.767406167623831,0.0936662688305307
37.0,79.4,5442.0,226.826,226.017,0.808999999999998,0.889910951292787,0.108618671461972
38.0,81.9,5592.0,228.735,228.231,0.504000000000019,0.555477389238948,0.0677991612066905
39.0,84.4,5742.0,225.949,225.449,0.5,0.552117828275613,0.0673891077648233
40.0,86.9,5892.0,224.65,224.276,0.373999999999995,0.413759120725206,0.0505016439376968
41.0,89.4,6042.0,226.314,225.5,0.813999999999993,0.90220053753452,0.11011868506272
42.0,91.9,6192.0,223.695,222.612,1.083,1.20253717142557,0.14677647213368
43.0,94.4,6342.0,223.218,223.117,0.100999999999999,0.112349635875377,0.0137129093313121
44.0,96.9,6492.0,223.76,222.837,0.923000000000002,1.02854024700936,0.125539162107208
45.0,99.4,6642.0,224.686,223.837,0.849000000000018,0.947732574772545,0.115676128070435
46.0,101.9,6792.0,226.407,224.961,1.446,1.6169416739979,0.197356888580827
47.0,104.4,6942.0,222.979,222.325,0.654000000000025,0.732556871273712,0.089412714848039
48.0,106.9,7092.0,224.644,223.264,1.38,1.54835303389344,0.188985256616183
49.0,109.4,7242.0,221.881,221.114,0.766999999999996,0.861992552133159,0.105211072733516
50.0,111.9,7392.0,221.401,220.954,0.447000000000003,0.503179606292224,0.0614159206185985
51.0,114.4,7542.0,221.356,220.843,0.513000000000005,0.578402966033614,0.0705973576895167
52.0,116.9,7692.0,221.393,220.326,1.06700000000001,1.20494063234937,0.147069828151015
53.0,119.4,7842.0,220.437,219.863,0.574000000000012,0.649219888157746,0.0792409640941518
54.0,121.9,7992.0,220.466,219.148,1.31800000000001,1.49301714829186,0.182231198393296
55.0,124.4,8142.0,221.691,220.608,1.083,1.22867842680373,0.149967160399061
56.0,126.9,8292.0,221.428,220.472,0.955999999999989,1.08622337305719,0.132579714319749
57.0,129.4,8442.0,221.294,220.527,0.767000000000024,0.872769032519139,0.106526403195357
58.0,131.9,8592.0,218.246,218.234,0.0120000000000005,0.0136747474040437,0.00166908036522925
59.0,134.4,8742.0,218.563,217.681,0.881999999999977,1.00654290821485,0.122854262329216
60.0,136.9,8892.0,218.054,217.551,0.503000000000014,0.574842699470484,0.0701628069925331
61.0,139.4,9042.0,220.805,219.653,1.15200000000002,1.31838627003655,0.160916510710474
62.0,141.9,9192.0,220.128,219.297,0.830999999999989,0.95234070295017,0.116238576211851
63.0,144.4,9342.0,217.546,216.2,1.346,1.54464835371142,0.188533079419152
64.0,146.9,9492.0,219.404,218.74,0.663999999999987,0.763023897390525,0.0931313879303265
65.0,149.4,9642.0,219.282,218.334,0.948000000000008,1.09082800671029,0.133141735934656
66.0,151.9,9792.0,218.516,218.248,0.268000000000001,0.30878282732582,0.0376886928132287
67.0,154.4,9942.0,216.704,216.366,0.337999999999994,0.389940282051664,0.0475944197837197
68.0,156.9,10092.0,215.554,215.606,-0.0519999999999925,-0.0600676419192472,-0.00733159587894033
69.0,159.4,10242.0,218.583,218.128,0.455000000000013,0.526256392862021,0.0642325731108299
70.0,161.9,10392.0,218.434,217.74,0.693999999999988,0.803687553466386,0.0980946174459653
71.0,164.4,10542.0,216.685,215.713,0.972000000000008,1.127013142377,0.137558336671032
72.0,166.9,10692.0,217.873,217.583,0.289999999999992,0.336657999049613,0.0410910153883293
73.0,169.4,10842.0,215.716,215.559,0.157000000000011,0.182478716369541,0.0222725607695374
74.0,171.9,10992.0,215.375,214.533,0.842000000000013,0.979805334360051,0.119590790016615
75.0,174.4,11142.0,216.95,217.177,-0.227000000000004,-0.264461430357906,-0.0322790153067321
76.0,176.9,11292.0,214.621,214.1,0.521000000000015,0.607682505784513,0.0741710913357209
77.0,179.4,11442.0,214.431,213.922,0.509000000000015,0.594364932575398,0.0725456061037771
78.0,181.9,11592.0,215.384,214.678,0.705999999999989,0.825335360787951,0.100736854928173
79.0,184.4,11742.0,215.283,214.564,0.718999999999994,0.841470850334312,0.10270628280786
80.0,186.9,11892.0,215.142,214.564,0.578000000000003,0.677199523061355,0.082656036991958
81.0,189.4,12042.0,212.836,211.893,0.943000000000012,1.10604655528793,0.134999245976173
82.0,191.9,12192.0,213.424,212.627,0.796999999999997,0.93580926154953,0.114220820165945
83.0,194.4,12342.0,215.546,214.517,1.029,1.20950088324571,0.147626432599106
84.0,196.9,12492.0,213.078,211.796,1.28200000000001,1.5084649793931,0.184116693665321
85.0,199.4,12642.0,214.285,214.559,-0.274000000000001,-0.322737071362943,-0.039391887325406
86.0,201.9,12792.0,212.257,212.008,0.248999999999995,0.293591522264977,0.0358345079972252
87.0,204.4,12942.0,213.8,213.53,0.27000000000001,0.31867550594399,0.0388961502640498
88.0,206.9,13092.0,214.469,213.36,1.10899999999998,1.3102440575651,0.159922707566322
89.0,209.4,13242.0,212.014,211.685,0.329000000000008,0.389087565068813,0.0474903408467476
90.0,211.9,13392.0,214.738,214.196,0.542000000000002,0.641618235859943,0.0783131393805624
91.0,214.4,13542.0,213.589,213.103,0.48599999999999,0.575883833574604,0.0702898833062237
92.0,216.9,13692.0,212.849,212.535,0.313999999999993,0.372430126731968,0.045457206161216
93.0,219.4,13842.0,212.916,211.882,1.03399999999999,1.22757392063481,0.149832349165964
94.0,221.9,13992.0,209.979,209.675,0.304000000000002,0.361250252355565,0.0440926391782919
95.0,224.4,14142.0,209.708,208.932,0.77600000000001,0.922994988818093,0.112656765607657
96.0,226.9,14292.0,211.405,210.928,0.477000000000004,0.567877568106531,0.0693126732637464
97.0,229.4,14442.0,208.446,208.524,-0.078000000000003,-0.0929448640857119,-0.0113444470388162
98.0,231.9,14592.0,210.556,210.665,-0.10899999999998,-0.130001264228532,-0.0158673905387575
99.0,234.4,14742.0,210.296,209.582,0.713999999999999,0.852325486249,0.1040311525946
100.0,236.9,14892.0,210.25,209.4,0.849999999999994,1.01556646445299,0.12395563847143
101.0,239.4,15042.0,207.707,206.847,0.859999999999985,1.0284095262149,0.125523206893929
102.0,241.9,15192.0,209.808,208.699,1.10899999999998,1.32731353858738,0.162006134395144
103.0,244.4,15342.0,207.211,207.314,-0.10299999999998,-0.123381412361547,-0.0150594001280064
104.0,246.9,15492.0,207.736,207.384,0.352000000000004,0.422009256774211,0.0515086197656958
105.0,249.4,15642.0,208.015,207.865,0.149999999999977,0.179983921447818,0.0219680569205017
106.0,251.9,15792.0,209.62,209.15,0.469999999999999,0.564416692657357,0.0688902538151055
107.0,254.4,15942.0,210.08,209.51,0.570000000000022,0.685066701550657,0.0836162706809814
108.0,256.9,16092.0,209.966,209.474,0.492000000000019,0.591800943581906,0.0722326567264134
109.0,259.4,16242.0,209.7,209.403,0.296999999999997,0.357533012301594,0.043638928977759
110.0,261.9,16392.0,207.881,207.942,-0.0610000000000071,-0.0734912011586366,-0.0089700173061128
111.0,264.4,16542.0,206.924,206.552,0.372000000000014,0.448529475734044,0.0547455626824145
112.0,266.9,16692.0,208.493,208.707,-0.213999999999999,-0.25822670116879,-0.0315180312998906
113.0,269.4,16842.0,209.779,209.264,0.514999999999986,0.621914632486918,0.0759082030009364
114.0,271.9,16992.0,209.857,209.491,0.365999999999985,0.442321153539801,0.0539878017988487
115.0,274.4,17142.0,209.167,209.23,-0.0629999999999882,-0.0761951301940336,-0.00930004715811723
116.0,276.9,17292.0,206.065,205.876,0.188999999999993,0.22875760056859,0.0279211606784841
117.0,279.4,17442.0,207.002,206.993,0.00900000000001455,0.0109013523395036,0.00133057179095907
118.0,281.9,17592.0,206.856,207.113,-0.257000000000005,-0.311524537733592,-0.0380233340956997
119.0,284.4,17742.0,206.667,207.085,-0.418000000000006,-0.507053603295956,-0.0618887638926156
120.0,286.9,17892.0,204.415,204.136,0.278999999999996,0.338686188829347,0.0413385674372476
121.0,289.4,18042.0,206.252,205.503,0.749000000000024,0.909888305481527,0.111057020678996
122.0,291.9,18192.0,204.264,204.119,0.14500000000001,0.176272510505634,0.0215150581960745
123.0,294.4,18342.0,206.556,206.138,0.418000000000006,0.508511269240151,0.0620666802763435
124.0,296.9,18492.0,207.994,206.971,1.023,1.24538917277719,0.152006801583541
125.0,299.4,18642.0,207.894,207.477,0.417000000000002,0.508005186776146,0.0620049100455013
126.0,301.9,18792.0,206.042,205.538,0.503999999999991,0.614416404279508,0.074993001783304
127.0,304.4,18942.0,205.495,205.008,0.486999999999995,0.594099221023413,0.0725131745040459
128.0,306.9,19092.0,207.218,206.355,0.863,1.05350402728715,0.128586132868162
129.0,309.4,19242.0,206.937,206.67,0.267000000000024,0.326159265330781,0.0398095854801841
130.0,311.9,19392.0,206.862,206.949,-0.0870000000000175,-0.106347792981516,-0.0129803504157177
131.0,314.4,19542.0,204.627,204.382,0.245000000000005,0.299684196840359,0.0365781534339587
132.0,316.9,19692.0,204.249,204.629,-0.379999999999995,-0.465122859237961,-0.0567708791128239
133.0,319.4,19842.0,206.893,206.185,0.707999999999998,0.867164554659848,0.10584234493264
134.0,321.9,19992.0,203.296,203.793,-0.497000000000014,-0.609125393309604,-0.0743472039297021
135.0,324.4,20142.0,203.41,202.743,0.667000000000002,0.818005322475048,0.0998421822396798
136.0,326.9,20292.0,202.954,203.307,-0.35299999999998,-0.433194509199474,-0.0528738431699408
137.0,329.4,20442.0,203.01,202.912,0.0979999999999848,0.120340069292442,0.0146881869823019
138.0,331.9,20592.0,204.218,204.6,-0.382000000000005,-0.469376700088288,-0.0572900844794979
139.0,334.4,20742.0,203.909,203.144,0.764999999999986,0.940571161688675,0.114802037046125
140.0,336.9,20892.0,203.728,203.849,-0.120999999999981,-0.148862657024067,-0.018169530347687
141.0,339.4,21042.0,201.329,201.163,0.165999999999997,0.204351017767955,0.0249421990252081
142.0,341.9,21192.0,201.352,200.967,0.384999999999991,0.474237564195856,0.0578833804724893
143.0,344.4,21342.0,202.864,202.919,-0.0550000000000068,-0.0677895318087291,-0.00827409627153882
144.0,346.9,21492.0,203.612,203.259,0.353000000000009,0.435349074624221,0.0531368200820396
145.0,349.4,21642.0,203.635,203.993,-0.358000000000004,-0.441781176723273,-0.0539218945703262
146.0,351.9,21792.0,203.781,203.989,-0.207999999999998,-0.256830794168664,-0.0313476529450475
147.0,354.4,21942.0,203.963,203.581,0.382000000000005,0.471959846673752,0.0576053721494575
148.0,356.9,22092.0,203.409,203.125,0.283999999999992,0.351088285254818,0.0428523135431035
149.0,359.4,22242.0,203.425,203.175,0.25,0.30923791012238,0.0377442382458314
150.0,361.9,22392.0,201.049,201.332,-0.282999999999987,-0.350261433858637,-0.0427513916474698
151.0,364.4,22542.0,200.623,200.197,0.425999999999988,0.527554244642932,0.064390983270849
152.0,366.9,22692.0,202.077,202.072,0.00499999999999545,0.00619551859836009,0.000756198132177389
153.0,369.4,22842.0,202.995,202.424,0.570999999999998,0.707933455783324,0.0864072875369842
154.0,371.9,22992.0,200.972,200.707,0.265000000000015,0.328737636432134,0.0401242902752628
155.0,374.4,23142.0,203.202,203.775,-0.573000000000008,-0.711220043702214,-0.0868084342055067
156.0,376.9,23292.0,202.686,202.874,-0.187999999999988,-0.233481050281959,-0.0284976844664409
157.0,379.4,23442.0,199.572,200.319,-0.746999999999986,-0.928233959629707,-0.113296211665219
158.0,381.9,23592.0,201.632,202.013,-0.381,-0.473700184783159,-0.0578177902718144
159.0,384.4,23742.0,201.572,201.561,0.0109999999999957,0.0136839563796153,0.0016702043728512
160.0,386.9,23892.0,199.359,199.528,-0.168999999999983,-0.210351122273472,-0.0256745457606602
161.0,389.4,24042.0,199.777,199.388,0.388999999999982,0.484446254951297,0.0591294089943446
162.0,391.9,24192.0,202.13,202.464,-0.334000000000003,-0.416177986935847,-0.0507968802575357
163.0,394.4,24342.0,202.392,202.418,-0.0260000000000105,-0.0324146555331296,-0.00395639228261121
164.0,396.9,24492.0,202.289,201.767,0.521999999999991,0.651137639913389,0.0794750365567832
165.0,399.4,24642.0,201.766,201.674,0.0919999999999845,0.114821494233963,0.0140146136429197
166.0,401.9,24792.0,199.096,199.355,-0.258999999999986,-0.323420136297388,-0.0394752592690751
167.0,404.4,24942.0,199.197,198.589,0.608000000000004,0.759629240276154,0.0927170508044645
168.0,406.9,25092.0,200.967,200.551,0.416000000000025,0.520021293122762,0.0634715438762448
169.0,409.4,25242.0,201.048,201.057,-0.00899999999998613,-0.0112563847220006,-0.0013739055039073
170.0,411.9,25392.0,198.547,198.269,0.277999999999992,0.347879452541714,0.0424606573378003
171.0,414.4,25542.0,200.698,200.314,0.384000000000015,0.480774839121807,0.058681291899927
172.0,416.9,25692.0,200.28,199.763,0.516999999999996,0.647629400213507,0.079046836033104
173.0,419.4,25842.0,199.836,199.988,-0.151999999999987,-0.190504003893846,-0.0232520925617061
174.0,421.9,25992.0,199.995,199.652,0.343000000000018,0.430108640137592,0.0524971953746526
175.0,424.4,26142.0,198.915,199.047,-0.132000000000005,-0.165607706913249,-0.0202133585193542
176.0,426.9,26292.0,201.599,201.892,-0.293000000000006,-0.367786560903494,-0.0448904326538192
177.0,429.4,26442.0,201.463,201.137,0.325999999999993,0.409417624266288,0.0499717397075718
178.0,431.9,26592.0,200.782,200.467,0.314999999999998,0.395803179852701,0.0483100196638434
179.0,434.4,26742.0,199.593,200.244,-0.65100000000001,-0.81840564375936,-0.0998910437195805
180.0,436.9,26892.0,199.346,199.078,0.268000000000001,0.337085794277882,0.0411432302186837
181.0,439.4,27042.0,198.316,198.26,0.0560000000000116,0.070471068643656,0.00860139302866152
182.0,441.9,27192.0,198.601,198.781,-0.180000000000007,-0.226627010531341,-0.0276611100982099
183.0,444.4,27342.0,198.473,199.023,-0.549999999999983,-0.692815133868259,-0.0845620107272504
184.0,446.9,27492.0,196.774,197.6,-0.825999999999993,-1.04099688000521,-0.127059564710336
185.0,449.4,27642.0,198.899,198.954,-0.0550000000000068,-0.0693499228869078,-0.00846455083963541
186.0,451.9,27792.0,197.027,197.298,-0.271000000000015,-0.341873721687267,-0.0417276238745976
187.0,454.4,27942.0,196.921,197.065,-0.144000000000005,-0.181748692543009,-0.0221834572271455
188.0,456.9,28092.0,196.298,197.458,-1.16,-1.46480029861483,-0.178787172088969
189.0,459.4,28242.0,196.659,196.96,-0.301000000000016,-0.380275040257533,-0.0464147222853215
190.0,461.9,28392.0,199.512,199.749,-0.236999999999995,-0.299564156390761,-0.036563501817257
191.0,464.4,28542.0,197.301,196.9,0.400999999999982,0.507102026340643,0.0618946741994553
192.0,466.9,28692.0,196.556,196.043,0.513000000000005,0.649048452825153,0.0792200394409144
193.0,469.4,28842.0,196.603,196.46,0.143000000000001,0.181010552557766,0.0220933630616186
194.0,471.9,28992.0,199.228,199.85,-0.621999999999986,-0.787708767511041,-0.0961443161270261
195.0,474.4,29142.0,197.785,197.852,-0.0670000000000073,-0.0848900683893691,-0.0103613136071359
196.0,476.9,29292.0,196.51,196.582,-0.0720000000000027,-0.0912684602688336,-0.0111398324589432
197.0,479.4,29442.0,197.991,198.124,-0.132999999999981,-0.168672929603941,-0.0205874863081115
198.0,481.9,29592.0,198.588,198.463,0.125,0.158602001899556,0.0193582725468349
199.0,484.4,29742.0,198.465,198.083,0.382000000000005,0.484915779023121,0.059186717066379
200.0,486.9,29892.0,197.611,198.279,-0.668000000000006,-0.848365747565389,-0.10354784406297
201.0,489.4,30042.0,195.19,195.686,-0.496000000000009,-0.630218967170505,-0.0769217940792307
202.0,491.9,30192.0,195.293,195.477,-0.183999999999998,-0.233899975924598,-0.028548816713638
203.0,494.4,30342.0,197.268,197.91,-0.641999999999996,-0.816487208334874,-0.0996568878112948
204.0,496.9,30492.0,195.074,195.318,-0.244,-0.310459990045528,-0.0378934000214899
205.0,499.4,30642.0,197.189,197.94,-0.751000000000005,-0.955997307309138,-0.116684885482409
206.0,501.9,30792.0,195.392,195.797,-0.405000000000001,-0.515789085729201,-0.0629549789954864
207.0,504.4,30942.0,195.311,195.362,-0.0509999999999877,-0.0649811177825573,-0.00793131343467767
208.0,506.9,31092.0,197.153,197.047,0.105999999999995,0.135120809164077,0.0164922599917977
209.0,509.4,31242.0,197.051,197.098,-0.0470000000000255,-0.0599394983732858,-0.00731595523343694
210.0,511.9,31392.0,194.98,194.878,0.102000000000004,0.130140899792784,0.0158844338501763
211.0,514.4,31542.0,194.966,195.454,-0.488,-0.622918695054947,-0.076030754523699
212.0,516.9,31692.0,NA,125.774,-125.774,-160.62008732964,-19.6045913026542
213.0,519.4,31842.0,NA,127.601,-127.601,-163.027190745327,-19.8983919067526
214.0,521.9,31992.0,NA,125.723,-125.723,-160.700502432529,-19.6144064213789
215.0,524.4,32142.0,NA,127.734,-127.734,-163.34472034869,-19.9371481931169
216.0,526.9,32292.0,NA,125.799,-125.799,-160.942756548214,-19.6439749081625
217.0,529.4,32442.0,NA,125.891,-125.891,-161.132877372479,-19.6671802314805
218.0,531.9,32592.0,NA,126.08,-126.08,-161.447191746898,-19.7055440809434
219.0,534.4,32742.0,NA,127.74,-127.74,-163.646082898709,-19.9739311990614
220.0,536.9,32892.0,NA,127.785,-127.785,-163.776877440471,-19.9898954136157
221.0,539.4,33042.0,NA,128.009,-128.009,-164.137127294639,-20.0338659485296
222.0,541.9,33192.0,NA,127.692,-127.692,-163.803524169873,-19.9931477978484
223.0,544.4,33342.0,NA,125.766,-125.766,-161.404504594298,-19.7003338722172
224.0,546.9,33492.0,NA,125.564,-125.564,-161.216699320097,-19.6774111748983
225.0,549.4,33642.0,NA,127.567,-127.567,-163.860902442176,-20.0001511409349
226.0,551.9,33792.0,NA,125.59,-125.59,-161.39267543792,-19.6988900566889
