"Frame","Time (aligned)","Time [ s]","Intensity Ch3-T2","background","Intensity (bg-subst)","bleach-Corrected","Normalized"
1.0,-11.3,0.0,254.648,246.975,7.673,7.69848298728969,0.954935940342458
2.0,-8.8,150.0,249.746,242.519,7.227,7.27473178641957,0.902372954603288
3.0,-6.3,300.0,248.983,241.044,7.93899999999999,8.01720550029161,0.994470947845144
4.0,-3.8,450.0,247.831,239.455,8.37599999999998,8.48538905891567,1.05254541622361
5.0,-0.333333333333333,658.0,246.117,237.425,8.69199999999998,8.83308816511284,1.0956747409855
6.0,1.9,792.0,268.616,260.345,8.27099999999996,8.43118826403942,1.04582223620128
7.0,4.4,942.0,261.191,253.247,7.94399999999996,8.12247461319554,1.0075287489062
8.0,6.9,1092.0,260.195,251.924,8.27099999999999,8.48215549385449,1.05214431804655
9.0,9.4,1242.0,258.209,250.167,8.042,8.27165392573593,1.02603326302094
10.0,11.9,1392.0,255.786,247.025,8.761,9.03739607120035,1.12101752121131
11.0,14.4,1542.0,253.501,245.387,8.114,8.39397225130985,1.04120588410043
12.0,16.9,1692.0,251.892,243.915,7.977,8.27554907665566,1.0265164256924
13.0,19.4,1842.0,249.641,241.536,8.10499999999999,8.43173644865149,1.04589023416774
14.0,21.9,1992.0,249.579,240.926,8.65300000000002,9.02650914618748,1.11966708424967
15.0,24.4,2142.0,249.111,240.353,8.75799999999998,9.16072371250674,1.13631533992645
16.0,26.9,2292.0,248.268,239.918,8.34999999999999,8.75721278997763,1.08626300066949
17.0,29.4,2442.0,245.553,237.121,8.43199999999999,8.86640829156911,1.09980783920009
18.0,31.9,2592.0,244.573,236.253,8.32000000000002,8.77125078385088,1.08800430280681
19.0,34.4,2742.0,245.608,237.223,8.38499999999999,8.86229018258609,1.09929702034388
20.0,36.9,2892.0,245.87,237.555,8.315,8.8103613836539,1.09285566345304
21.0,39.4,3042.0,245.719,237.006,8.71299999999999,9.25490300986091,1.14799753705908
22.0,41.9,3192.0,247.711,238.867,8.84400000000002,9.41694302156729,1.16809731921193
23.0,44.4,3342.0,242.894,234.637,8.25700000000001,8.81302795743147,1.09318643084474
24.0,46.9,3492.0,244.634,236.267,8.36699999999999,8.95156827580241,1.11037126185851
25.0,49.4,3642.0,242.646,233.769,8.87699999999998,9.51934689283943,1.18079970970489
26.0,51.9,3792.0,241.565,233.395,8.16999999999999,8.78132142743218,1.08925348651144
27.0,54.4,3942.0,240.373,232.347,8.02599999999998,8.64608296058303,1.07247822407022
28.0,56.9,4092.0,242.205,233.704,8.50100000000001,9.17821978264938,1.13848558908093
29.0,59.4,4242.0,241.705,233.459,8.24600000000001,8.92248764422074,1.10676403946014
30.0,61.9,4392.0,239.525,230.816,8.709,9.44389868437294,1.1714409560364
31.0,64.4,4542.0,239.078,230.332,8.74600000000001,9.50428260897766,1.17893110440968
32.0,66.9,4692.0,239.794,231.438,8.35600000000002,9.09958932596191,1.12873210268363
33.0,69.4,4842.0,236.812,229.316,7.49600000000001,8.17999991676613,1.01466430794417
34.0,71.9,4992.0,235.79,228.288,7.50199999999998,8.20329293650531,1.01755362285788
35.0,74.4,5142.0,237.528,229.892,7.636,8.36665396561888,1.0378172667744
36.0,76.9,5292.0,234.828,227.024,7.804,8.56772207744852,1.06275817614056
37.0,79.4,5442.0,235.097,227.254,7.84300000000002,8.62740616933173,1.07016151579853
38.0,81.9,5592.0,237.041,229.381,7.66,8.44237460629004,1.04720981350368
39.0,84.4,5742.0,237.305,229.396,7.90900000000002,8.73339980766366,1.08330918850988
40.0,86.9,5892.0,234.5,226.316,8.184,9.05402311233991,1.12307997418964
41.0,89.4,6042.0,232.957,225.356,7.601,8.42460231670755,1.04500530151183
42.0,91.9,6192.0,232.785,224.98,7.80500000000001,8.66648441641419,1.0750088633456
43.0,94.4,6342.0,234.686,226.75,7.93600000000001,8.8277892109604,1.09501744762332
44.0,96.9,6492.0,234.397,227.489,6.90799999999999,7.69789385302345,0.954862862895194
45.0,99.4,6642.0,232.308,225.051,7.25700000000001,8.10093674337364,1.00485714646124
46.0,101.9,6792.0,234.953,227.093,7.86000000000001,8.78918503293469,1.09022890459413
47.0,104.4,6942.0,234.632,227.461,7.17099999999999,8.03236288058651,0.996351101016742
48.0,106.9,7092.0,232.727,225.143,7.584,8.50920971670139,1.0555001804648
49.0,109.4,7242.0,231.774,224.032,7.74199999999999,8.70084268398298,1.07927073475631
50.0,111.9,7392.0,230.589,223.302,7.28700000000001,8.20284069586447,1.01749752598238
51.0,114.4,7542.0,231.661,224.681,6.97999999999999,7.86988830977501,0.976197415243092
52.0,116.9,7692.0,231.204,223.863,7.34100000000001,8.29003672172133,1.02831350350461
53.0,119.4,7842.0,230.08,223.236,6.84400000000002,7.74087267343473,0.960194045720696
54.0,121.9,7992.0,227.579,220.824,6.755,7.65199608248209,0.949169607387077
55.0,124.4,8142.0,226.769,221.172,5.59700000000001,6.34987364249353,0.787651614982023
56.0,126.9,8292.0,229.996,223.292,6.70400000000001,7.61719821440951,0.944853207009929
57.0,129.4,8442.0,229.832,223.728,6.10399999999999,6.94573947131244,0.861564059355879
58.0,131.9,8592.0,228.811,222.979,5.83199999999999,6.64592723836497,0.82437472256465
59.0,134.4,8742.0,225.818,220.183,5.63500000000002,6.43069080248397,0.797676344633137
60.0,136.9,8892.0,225.18,219.141,6.03900000000002,6.90154087893074,0.856081573462552
61.0,139.4,9042.0,226.813,221.125,5.68799999999999,6.50953220830535,0.807455997602463
62.0,141.9,9192.0,226.249,221.064,5.185,5.94210173862419,0.73707073468267
63.0,144.4,9342.0,226.828,221.699,5.12899999999999,5.88595943995978,0.730106726467467
64.0,146.9,9492.0,224.391,219.616,4.77499999999998,5.48710709343344,0.680632246726879
65.0,149.4,9642.0,224.714,221.257,3.45699999999999,3.97784010463866,0.493419610996943
66.0,151.9,9792.0,223.538,220.53,3.00800000000001,3.46574158431369,0.429897838868344
67.0,154.4,9942.0,221.89,219.894,1.99599999999998,2.30272426915718,0.285634737252459
68.0,156.9,10092.0,221.675,219.407,2.268,2.61987330524755,0.324974567386224
69.0,159.4,10242.0,220.961,219.557,1.40400000000002,1.62387686940279,0.201429085164408
70.0,161.9,10392.0,217.555,216.854,0.700999999999993,0.811793912074842,0.100696615693164
71.0,164.4,10542.0,218.412,217.84,0.572000000000003,0.663221725760947,0.082267410786089
72.0,166.9,10692.0,216.339,215.128,1.21100000000001,1.40583736844516,0.174383009174822
73.0,169.4,10842.0,218.402,217.882,0.519999999999982,0.60438810517294,0.0749695653673593
74.0,171.9,10992.0,216.303,215.803,0.5,0.581832146294558,0.0721716770252775
75.0,174.4,11142.0,216.087,215.403,0.683999999999998,0.796879376056404,0.0988465854338192
76.0,176.9,11292.0,217.168,216.798,0.370000000000005,0.431559553052334,0.0535315500843743
77.0,179.4,11442.0,214.695,213.388,1.30699999999999,1.52619836321418,0.189312838845169
78.0,181.9,11592.0,214.224,213.662,0.561999999999983,0.656995003913346,0.0814950351774649
79.0,184.4,11742.0,213.749,213.348,0.400999999999982,0.469304326820649,0.0582134908110043
80.0,186.9,11892.0,213.583,212.726,0.856999999999999,1.00408302986778,0.12454856026723
81.0,189.4,12042.0,213.192,212.653,0.539000000000016,0.632194160445603,0.0784186866530535
82.0,191.9,12192.0,214.534,214.246,0.287999999999982,0.338159432027916,0.0419460036142701
83.0,194.4,12342.0,215.864,215.264,0.599999999999994,0.705248328423153,0.0874804785292914
84.0,196.9,12492.0,214.101,213.858,0.242999999999995,0.285925889229728,0.0354668456565584
85.0,199.4,12642.0,214.942,214.485,0.456999999999994,0.538287743112636,0.0667703381293116
86.0,201.9,12792.0,212.809,212.314,0.495000000000005,0.583645797273766,0.0723966460881619
87.0,204.4,12942.0,215.431,215.131,0.300000000000011,0.354083895493322,0.04392130738761
88.0,206.9,13092.0,215.875,215.695,0.180000000000007,0.212663598162065,0.0263792377566841
89.0,209.4,13242.0,214.233,213.419,0.813999999999993,0.962666498376911,0.119411167028815
90.0,211.9,13392.0,212.995,211.732,1.26300000000001,1.49513622120131,0.185459825746214
91.0,214.4,13542.0,214.058,212.948,1.10999999999999,1.31529023717657,0.163151353524476
92.0,216.9,13692.0,213.6,212.571,1.029,1.22047961913122,0.151390846052151
93.0,219.4,13842.0,212.364,212.091,0.272999999999996,0.324108008059285,0.0402030355798158
94.0,221.9,13992.0,209.567,209.403,0.164000000000016,0.194885004560256,0.0241739438010905
95.0,224.4,14142.0,212.249,211.078,1.17099999999999,1.39281846895099,0.172768117636941
96.0,226.9,14292.0,212.009,211.021,0.988,1.17623278257704,0.145902375850709
97.0,229.4,14442.0,212.246,211.834,0.412000000000006,0.490939538504005,0.0608971677441694
98.0,231.9,14592.0,213.01,211.904,1.10599999999999,1.31909539666772,0.163623353470807
99.0,234.4,14742.0,213.662,212.683,0.979000000000013,1.16866477736384,0.144963624646516
100.0,236.9,14892.0,211.023,209.716,1.30699999999999,1.56158278710595,0.193701996833613
101.0,239.4,15042.0,209.185,208.76,0.425000000000011,0.50822563795506,0.063041371694662
102.0,241.9,15192.0,208.776,208.323,0.453000000000003,0.542175863823352,0.0672526287589308
103.0,244.4,15342.0,208.481,207.698,0.782999999999987,0.937938309505906,0.116343830732627
104.0,246.9,15492.0,210.694,209.682,1.012,1.21327661322584,0.150497370125933
105.0,249.4,15642.0,208.332,207.628,0.704000000000008,0.844724537995228,0.10478139944618
106.0,251.9,15792.0,210.877,209.67,1.20700000000002,1.44947010220733,0.17979530478081
107.0,254.4,15942.0,210.078,209.284,0.794000000000011,0.954285896545981,0.118371619639638
108.0,256.9,16092.0,210.363,209.541,0.822000000000003,0.988740600862419,0.122645453266336
109.0,259.4,16242.0,210.185,209.287,0.897999999999996,1.08102574089843,0.13409269516132
110.0,261.9,16392.0,210.804,209.683,1.12100000000001,1.35055141801349,0.167525224186486
111.0,264.4,16542.0,209.864,209.12,0.744,0.897058951468053,0.111273069613465
112.0,266.9,16692.0,206.882,206.476,0.406000000000006,0.489906732123976,0.0607690562794389
113.0,269.4,16842.0,209.183,208.095,1.08799999999999,1.3138701362054,0.16297520122817
114.0,271.9,16992.0,206.834,206.489,0.344999999999999,0.416942070959663,0.0517183670156256
115.0,274.4,17142.0,209.34,208.832,0.50800000000001,0.614398827596462,0.0762113163261906
116.0,276.9,17292.0,207.227,206.299,0.927999999999997,1.12321192236856,0.139325557393808
117.0,279.4,17442.0,206.27,205.761,0.509000000000015,0.6165320378665,0.0764759241922508
118.0,281.9,17592.0,208.091,206.859,1.232,1.49337832874622,0.185241773087347
119.0,284.4,17742.0,207.715,206.596,1.119,1.35739947867982,0.16837467196246
120.0,286.9,17892.0,207.39,206.838,0.551999999999993,0.670088803705374,0.0831192175050351
121.0,289.4,18042.0,207.507,206.507,1.0,1.21480414617022,0.150686848509019
122.0,291.9,18192.0,206.2,205.3,0.899999999999977,1.09410523762107,0.135715103306232
123.0,294.4,18342.0,207.737,207.04,0.697000000000003,0.847924293445888,0.105178303808401
124.0,296.9,18492.0,207.89,206.317,1.57299999999998,1.91495324416276,0.237534807824548
125.0,299.4,18642.0,204.953,203.765,1.18800000000002,1.44726657527594,0.179521974688925
126.0,301.9,18792.0,204.674,203.771,0.90300000000002,1.10082939100083,0.136549181363078
127.0,304.4,18942.0,204.74,203.742,0.998000000000019,1.21747643240531,0.151018324485906
128.0,306.9,19092.0,206.975,206.191,0.783999999999992,0.957065072297931,0.118716354415886
129.0,309.4,19242.0,207.779,207.063,0.716000000000008,0.874644322010565,0.108492712068511
130.0,311.9,19392.0,206.964,205.886,1.078,1.31773472223048,0.163454572566132
131.0,314.4,19542.0,207.648,206.726,0.921999999999997,1.12779114076247,0.139893573226309
132.0,316.9,19692.0,206.176,205.73,0.445999999999998,0.545907355842453,0.0677154908378654
133.0,319.4,19842.0,205.636,205.212,0.424000000000007,0.5193188858415,0.0644174013773124
134.0,321.9,19992.0,206.086,204.826,1.26000000000002,1.5442615605032,0.191553435637715
135.0,324.4,20142.0,203.507,201.926,1.58100000000002,1.93893015717101,0.240508954290526
136.0,326.9,20292.0,202.738,201.557,1.18100000000001,1.44929947695358,0.179774140067268
137.0,329.4,20442.0,204.139,203.273,0.866000000000014,1.06341326538033,0.131908006840465
138.0,331.9,20592.0,207.355,206.279,1.07599999999999,1.32211866307589,0.163998365762859
139.0,334.4,20742.0,205.738,204.692,1.04599999999999,1.28606200670113,0.159525822650446
140.0,336.9,20892.0,204.968,203.616,1.35199999999998,1.66332489501295,0.206322300813892
141.0,339.4,21042.0,202.152,201.341,0.810999999999979,0.998365514516929,0.123839347698078
142.0,341.9,21192.0,204.62,203.209,1.411,1.73804987813083,0.215591344096648
143.0,344.4,21342.0,202.71,201.408,1.30200000000002,1.60476309845374,0.19905817301654
144.0,346.9,21492.0,205.902,204.367,1.535,1.89309016869167,0.234822866190302
145.0,349.4,21642.0,206.18,205.179,1.001,1.23525965893853,0.153224193120007
146.0,351.9,21792.0,203.21,202.375,0.835000000000008,1.03102746697518,0.127890804632599
147.0,354.4,21942.0,202.795,201.592,1.20299999999997,1.48630286792802,0.184364118120656
148.0,356.9,22092.0,202.269,201.22,1.04900000000001,1.29680144800112,0.160857965423703
149.0,359.4,22242.0,206.336,205.149,1.18700000000001,1.46826159726107,0.182126241152199
150.0,361.9,22392.0,201.617,200.68,0.936999999999983,1.15969951775814,0.143851555083444
151.0,364.4,22542.0,202.499,201.464,1.035,1.28173390423814,0.158988955763526
152.0,366.9,22692.0,205.325,204.308,1.017,1.26016848290758,0.156313935771772
153.0,369.4,22842.0,202.778,201.608,1.16999999999999,1.45058168698158,0.17993318808242
154.0,371.9,22992.0,203.294,202.183,1.11100000000002,1.37821703424938,0.170956925120163
155.0,374.4,23142.0,200.052,199.357,0.694999999999993,0.862649093146645,0.10700479877784
156.0,376.9,23292.0,200.268,199.777,0.491000000000014,0.609782955789639,0.0756387539276471
157.0,379.4,23442.0,203.337,202.391,0.945999999999998,1.17551449238249,0.145813277631813
158.0,381.9,23592.0,200.808,200.015,0.793000000000006,0.985942904286215,0.12229842112829
159.0,384.4,23742.0,202.253,201.26,0.992999999999995,1.23528806226939,0.153227716328607
160.0,386.9,23892.0,201.245,200.443,0.801999999999993,0.998234319901423,0.12382307404342
161.0,389.4,24042.0,199.935,198.907,1.02799999999999,1.28023329071967,0.158802816522365
162.0,391.9,24192.0,201.628,201.401,0.226999999999975,0.282851506091096,0.0350854927382874
163.0,394.4,24342.0,201.687,200.667,1.02000000000001,1.27165187091459,0.157738359251423
164.0,396.9,24492.0,201.579,200.601,0.978000000000009,1.21994753225155,0.1513248448821
165.0,399.4,24642.0,201.155,200.565,0.590000000000003,0.736355234761413,0.0913390442888462
166.0,401.9,24792.0,199.69,198.637,1.053,1.31490889390412,0.163104050906925
167.0,404.4,24942.0,202.145,200.757,1.38800000000001,1.73415359457779,0.215108040930985
168.0,406.9,25092.0,204.255,202.721,1.53399999999999,1.91757851839006,0.237860452333607
169.0,409.4,25242.0,200.831,199.497,1.33399999999997,1.66844635768574,0.206957577761499
170.0,411.9,25392.0,202.04,200.519,1.52099999999999,1.90332606948186,0.236092548744966
171.0,414.4,25542.0,199.476,198.438,1.03800000000001,1.2995944870011,0.161204419826247
172.0,416.9,25692.0,201.417,200.385,1.03200000000001,1.292753464256,0.160355845048751
173.0,419.4,25842.0,199.34,198.174,1.166,1.46136624039634,0.181270926656799
174.0,421.9,25992.0,199.352,198.794,0.557999999999993,0.699710265879769,0.0867935256619182
175.0,424.4,26142.0,200.287,198.757,1.53,1.91954387558531,0.238104239353006
176.0,426.9,26292.0,200.84,199.946,0.894000000000005,1.12218834623795,0.139198590868531
177.0,429.4,26442.0,198.068,197.045,1.02300000000002,1.28476757553506,0.159365258699754
178.0,431.9,26592.0,200.356,199.254,1.102,1.38468287046883,0.171758960975864
179.0,434.4,26742.0,198.448,197.422,1.02600000000001,1.28983746620138,0.159994138547753
180.0,436.9,26892.0,200.082,199.236,0.846000000000004,1.06408426104137,0.131991238546452
181.0,439.4,27042.0,198.236,196.842,1.39399999999998,1.75422624445062,0.217597894427202
182.0,441.9,27192.0,202.212,200.843,1.369,1.72362431898552,0.213801967551927
183.0,444.4,27342.0,200.799,199.681,1.118,1.40830421757224,0.174689002302915
184.0,446.9,27492.0,198.009,196.929,1.07999999999998,1.36110972204069,0.168834898313361
185.0,449.4,27642.0,197.232,196.457,0.775000000000006,0.97720345886086,0.12121436202871
186.0,451.9,27792.0,199.398,198.41,0.988,1.24638832851292,0.154604616582958
187.0,454.4,27942.0,199.97,198.532,1.43799999999999,1.81496263803357,0.225131763790154
188.0,456.9,28092.0,199.862,198.529,1.333,1.68325758452894,0.208794793334552
189.0,459.4,28242.0,198.785,197.769,1.01599999999999,1.28358618239744,0.159218716222664
190.0,461.9,28392.0,199.39,198.334,1.05599999999998,1.33476687404492,0.165567276320342
191.0,464.4,28542.0,200.516,199.351,1.16499999999999,1.4732515229099,0.182745201972087
192.0,466.9,28692.0,197.665,196.945,0.719999999999999,0.910945196947573,0.112995548562462
193.0,469.4,28842.0,199.311,197.834,1.477,1.86959850439035,0.231908910989411
194.0,471.9,28992.0,198.722,197.875,0.847000000000008,1.07265164964931,0.133053955358337
195.0,474.4,29142.0,198.951,197.666,1.285,1.62811549075115,0.201954852626613
196.0,476.9,29292.0,196.625,195.892,0.733000000000004,0.929163630236846,0.11525540115334
197.0,479.4,29442.0,201.948,200.736,1.21200000000002,1.53707962917299,0.190662573845903
198.0,481.9,29592.0,197.573,196.296,1.27700000000002,1.62027805140589,0.200982680248833
199.0,484.4,29742.0,196.942,195.907,1.035,1.31384249028514,0.162971771970366
200.0,486.9,29892.0,197.939,197.133,0.805999999999983,1.02362693493665,0.126972827151461
201.0,489.4,30042.0,196.095,194.881,1.214,1.54251174626004,0.19133638501716
202.0,491.9,30192.0,195.682,194.752,0.929999999999978,1.18221183483627,0.146644030005295
203.0,494.4,30342.0,197.736,196.999,0.736999999999995,0.937306966577572,0.116265517634586
204.0,496.9,30492.0,196.191,195.486,0.705000000000013,0.897025790910252,0.111268956308481
205.0,499.4,30642.0,198.741,197.338,1.40300000000002,1.78597100153759,0.221535580528456
206.0,501.9,30792.0,195.827,194.643,1.184,1.5078871049466,0.187041472049727
207.0,504.4,30942.0,197.351,196.278,1.07300000000001,1.36715175256277,0.169584364423463
208.0,506.9,31092.0,197.208,196.494,0.713999999999999,0.910153374935434,0.112897329303032
209.0,509.4,31242.0,197.325,196.957,0.367999999999995,0.469313519177807,0.0582146310502229
210.0,511.9,31392.0,196.405,195.917,0.488,0.622634893126235,0.0772329351301006
211.0,514.4,31542.0,198.442,197.555,0.887,1.13223131662651,0.140444341932432
212.0,516.9,31692.0,NA,NA,0.0,0.0,NA
213.0,519.4,31842.0,NA,127.601,-127.601,-163.027190745327,NA
214.0,521.9,31992.0,NA,125.723,-125.723,-160.700502432529,NA
215.0,524.4,32142.0,NA,127.734,-127.734,-163.34472034869,NA
216.0,526.9,32292.0,NA,125.799,-125.799,-160.942756548214,NA
217.0,529.4,32442.0,NA,125.891,-125.891,-161.132877372479,NA
218.0,531.9,32592.0,NA,126.08,-126.08,-161.447191746898,NA
219.0,534.4,32742.0,NA,127.74,-127.74,-163.646082898709,NA
220.0,536.9,32892.0,NA,127.785,-127.785,-163.776877440471,NA
221.0,539.4,33042.0,NA,128.009,-128.009,-164.137127294639,NA
222.0,541.9,33192.0,NA,127.692,-127.692,-163.803524169873,NA
223.0,544.4,33342.0,NA,125.766,-125.766,-161.404504594298,NA
224.0,546.9,33492.0,NA,125.564,-125.564,-161.216699320097,NA
225.0,549.4,33642.0,NA,127.567,-127.567,-163.860902442176,NA
226.0,551.9,33792.0,NA,125.59,-125.59,-161.39267543792,NA
227.0,554.4,33942.0,NA,125.809,-125.809,-161.745379055524,NA
228.0,556.9,34092.0,NA,125.769,-125.769,-161.765106464898,NA
229.0,559.4,34242.0,NA,125.835,-125.835,-161.921092663451,NA
230.0,561.9,34392.0,NA,127.857,-127.857,-164.59509357446,NA
231.0,564.4,34542.0,NA,128.092,-128.092,-164.96980508586,NA
232.0,566.9,34692.0,NA,127.529,-127.529,-164.316498350037,NA
233.0,569.4,34842.0,NA,125.767,-125.767,-162.116929779543,NA
234.0,571.9,34992.0,NA,128.005,-128.005,-165.073648244681,NA
235.0,574.4,35142.0,NA,127.847,-127.847,-164.941600772038,NA
236.0,576.9,35292.0,NA,127.68,-127.68,-164.797679584261,NA
237.0,579.4,35442.0,NA,127.554,-127.554,-164.706435301509,NA
238.0,581.9,35592.0,NA,127.937,-127.937,-165.27251416578,NA
239.0,584.4,35742.0,NA,127.556,-127.556,-164.851563992638,NA
240.0,586.9,35892.0,NA,127.775,-127.775,-165.205882547058,NA
NA,NA,NA,NA,127.916,NA,NA,NA
NA,NA,NA,NA,125.59,NA,NA,NA
NA,NA,NA,NA,125.055,NA,NA,NA
NA,NA,NA,NA,127.586,NA,NA,NA
NA,NA,NA,NA,127.512,NA,NA,NA
NA,NA,NA,NA,125.58,NA,NA,NA
NA,NA,NA,NA,127.46,NA,NA,NA
NA,NA,NA,NA,125.391,NA,NA,NA
NA,NA,NA,NA,127.211,NA,NA,NA
