"Frame","Time (aligned)","Time [ s]","Intensity Ch3-T2","background","Intensity (bg-subst)","bleach-Corrected","Normalized"
1.0,-11.3,0.0,256.137,248.066,8.071,8.09780479478888,0.92439332256579
2.0,-8.8,150.0,249.545,241.093,8.452,8.50782247942689,0.971198304831747
3.0,-6.3,300.0,246.156,237.214,8.94200000000001,9.03008585257686,1.03081653310408
4.0,-3.8,450.0,245.428,236.07,9.358,9.48021380292898,1.08220024537552
5.0,-0.333333333333333,658.0,244.784,236.238,8.54599999999999,8.68471829947704,0.991391594122863
6.0,1.9,792.0,265.837,257.927,7.90999999999997,8.06319661087557,0.920442674837634
7.0,4.4,942.0,262.694,254.311,8.38300000000001,8.57133744743437,0.97844876514747
8.0,6.9,1092.0,258.643,250.429,8.21399999999997,8.42370030546738,0.961595458398855
9.0,9.4,1242.0,256.693,248.638,8.05499999999998,8.28502516436243,0.945765196038644
10.0,11.9,1392.0,255.02,246.378,8.64200000000002,8.9146418042819,1.01763818291188
11.0,14.4,1542.0,253.024,244.016,9.00800000000001,9.31881957601666,1.06377651827427
12.0,16.9,1692.0,249.939,241.752,8.18699999999998,8.49340858600723,0.969552907447275
13.0,19.4,1842.0,248.37,239.975,8.39500000000001,8.73342720375441,0.996951889413318
14.0,21.9,1992.0,247.21,238.743,8.46700000000001,8.83248040457291,1.0082591658587
15.0,24.4,2142.0,245.766,237.967,7.79899999999998,8.15762551197077,0.931222070963088
16.0,26.9,2292.0,245.339,237.644,7.69499999999999,8.07026975076382,0.921250099003561
17.0,29.4,2442.0,245.437,237.15,8.28700000000001,8.71393803513204,0.994727131248184
18.0,31.9,2592.0,248.965,241.443,7.52199999999999,7.92996975914977,0.905234354157807
19.0,34.4,2742.0,250.086,242.046,8.04000000000002,8.49765212498419,0.970037322568874
20.0,36.9,2892.0,249.477,242.141,7.33600000000001,7.77303801689539,0.887320035609165
21.0,39.4,3042.0,247.875,241.736,6.13900000000001,6.5208136781288,0.744374157504632
22.0,41.9,3192.0,243.33,237.776,5.554,5.9138061444804,0.675082080815798
23.0,44.4,3342.0,241.454,237.98,3.47400000000002,3.70793982367895,0.423274566422042
24.0,46.9,3492.0,239.571,237.132,2.43899999999999,2.60940301478212,0.29787266844218
25.0,49.4,3642.0,239.095,238.933,0.162000000000006,0.173722450900084,0.0198310378752453
26.0,51.9,3792.0,239.213,238.384,0.829000000000008,0.891030044472626,0.101714260122205
27.0,54.4,3942.0,235.643,235.246,0.396999999999991,0.427671933136232,0.0488202777491431
28.0,56.9,4092.0,236.046,235.801,0.245000000000005,0.264517568138941,0.0301956246026493
29.0,59.4,4242.0,234.4,234.555,-0.155000000000001,-0.167715933162045,-0.0191453724350893
30.0,61.9,4392.0,233.953,233.248,0.705000000000013,0.764490592775638,0.0872693300264455
31.0,64.4,4542.0,233.374,232.907,0.466999999999985,0.50748913542104,0.0579316962987036
32.0,66.9,4692.0,232.546,232.704,-0.158000000000015,-0.172060209849464,-0.0196412871259216
33.0,69.4,4842.0,231.443,231.646,-0.202999999999975,-0.221523476934807,-0.0252876956236176
34.0,71.9,4992.0,230.796,230.563,0.233000000000004,0.254781025620605,0.0290841635194407
35.0,74.4,5142.0,229.609,229.461,0.147999999999996,0.162161444069089,0.0185113076782928
36.0,76.9,5292.0,226.935,226.843,0.092000000000013,0.101003386868961,0.0115298971442583
37.0,79.4,5442.0,227.887,228.358,-0.471000000000004,-0.518106375845374,-0.0591436921915468
38.0,81.9,5592.0,225.727,225.112,0.615000000000009,0.677814671392748,0.077374964209534
39.0,84.4,5742.0,224.011,224.472,-0.461000000000013,-0.509052637670129,-0.0581101756613829
40.0,86.9,5892.0,226.175,225.687,0.488,0.53987821099974,0.0616290248893233
41.0,89.4,6042.0,226.099,225.74,0.35899999999998,0.397899254268892,0.0454216201823943
42.0,91.9,6192.0,223.625,223.101,0.524000000000001,0.581837006303785,0.0664187711458549
43.0,94.4,6342.0,224.563,224.088,0.474999999999994,0.528377000403999,0.0603161206460686
44.0,96.9,6492.0,223.742,223.698,0.0439999999999827,0.0490311710383468,0.00559708319155779
45.0,99.4,6642.0,224.584,223.69,0.894000000000005,0.997965750113831,0.113921352629819
46.0,101.9,6792.0,223.777,223.59,0.186999999999983,0.209106565032905,0.0238702608076547
47.0,104.4,6942.0,221.816,221.3,0.515999999999991,0.577980650729686,0.06597855439175
48.0,106.9,7092.0,222.035,221.199,0.835999999999984,0.937987779952825,0.10707465324364
49.0,109.4,7242.0,221.776,221.532,0.244,0.274219273429585,0.0313031088919648
50.0,111.9,7392.0,221.011,221.331,-0.319999999999993,-0.360218062670038,-0.0411201776577834
51.0,114.4,7542.0,223.082,223.093,-0.0109999999999957,-0.0124024027804429,-0.00141577854795791
52.0,116.9,7692.0,222.668,222.077,0.591000000000008,0.667403855406262,0.0761865324031064
53.0,119.4,7842.0,221.565,221.83,-0.265000000000015,-0.299726951849841,-0.0342149014336934
54.0,121.9,7992.0,220.209,219.817,0.391999999999996,0.444053658672532,0.0506903101939368
55.0,124.4,8142.0,220.05,219.541,0.509000000000015,0.577467515459942,0.0659199781690645
56.0,126.9,8292.0,221.282,220.832,0.450000000000017,0.511297612840753,0.0583664475905835
57.0,129.4,8442.0,220.315,220.157,0.157999999999987,0.17978814489962,0.0205234584968817
58.0,131.9,8592.0,219.757,219.734,0.0229999999999961,0.0262099325244117,0.00299195735442494
59.0,134.4,8742.0,219.076,218.878,0.198000000000008,0.225958612048247,0.0257939821281008
60.0,136.9,8892.0,217.017,216.87,0.146999999999991,0.167995778970485,0.0191773178330367
61.0,139.4,9042.0,218.098,218.379,-0.280999999999977,-0.321585539826593,-0.0367101372758107
62.0,141.9,9192.0,218.296,218.22,0.0759999999999934,0.0870973446741367,0.00994247278988431
63.0,144.4,9342.0,218.417,217.447,0.969999999999999,1.11315668878163,0.127070809454603
64.0,146.9,9492.0,217.89,217.52,0.369999999999976,0.425178978967592,0.0485356981321541
65.0,149.4,9642.0,217.84,217.895,-0.0550000000000068,-0.0632864349884737,-0.00722437245585202
66.0,151.9,9792.0,215.651,215.942,-0.290999999999997,-0.335282846088853,-0.0382737336783962
67.0,154.4,9942.0,217.429,217.017,0.412000000000006,0.475311823092577,0.0542585412389909
68.0,156.9,10092.0,217.064,217.389,-0.325000000000017,-0.375422761995369,-0.0428558483591815
69.0,159.4,10242.0,215.354,215.149,0.205000000000012,0.237104528652127,0.0270663282939571
70.0,161.9,10392.0,214.765,215.102,-0.337000000000017,-0.390263264435433,-0.04454994468612
71.0,164.4,10542.0,216.553,216.691,-0.138000000000005,-0.160008038732542,-0.018265488772512
72.0,166.9,10692.0,216.41,216.282,0.127999999999986,0.148593875442576,0.0169625212899283
73.0,169.4,10842.0,214.608,214.378,0.230000000000018,0.267325508057292,0.0305161609673145
74.0,171.9,10992.0,215.531,215.955,-0.424000000000007,-0.493393660057793,-0.0563226474719697
75.0,174.4,11142.0,213.649,213.873,-0.22399999999999,-0.260966345375185,-0.0297902398480215
76.0,176.9,11292.0,213.879,213.618,0.260999999999996,0.304424441477448,0.0347511366424474
77.0,179.4,11442.0,213.014,212.877,0.137,0.159976416036989,0.018261878928937
78.0,181.9,11592.0,212.832,212.723,0.10899999999998,0.127424297912,0.0145459384496756
79.0,184.4,11742.0,212.453,212.56,-0.106999999999999,-0.125225842817485,-0.0142949769532169
80.0,186.9,11892.0,213.734,213.418,0.316000000000002,0.37023364928614,0.0422634926208042
81.0,189.4,12042.0,211.542,211.34,0.201999999999998,0.236926197421163,0.0270459711473864
82.0,191.9,12192.0,210.531,210.955,-0.424000000000007,-0.497845830485581,-0.0568308786183936
83.0,194.4,12342.0,213.196,212.837,0.359000000000009,0.421973583173201,0.048169790760514
84.0,196.9,12492.0,211.743,211.412,0.330999999999989,0.389471067222382,0.0444595125464899
85.0,199.4,12642.0,212.695,213.161,-0.466000000000008,-0.548888595821655,-0.0626575924794542
86.0,201.9,12792.0,212.791,213.127,-0.336000000000013,-0.396171692694931,-0.0452244128621686
87.0,204.4,12942.0,210.914,210.857,0.056999999999988,0.0672759401437144,0.00767978870992368
88.0,206.9,13092.0,211.311,210.659,0.652000000000015,0.770314811120359,0.0879341853401337
89.0,209.4,13242.0,210.992,210.911,0.0809999999999889,0.0957935950473215,0.0109351808113848
90.0,211.9,13392.0,212.373,212.464,-0.0910000000000082,-0.107725570965424,-0.0122972584538106
91.0,214.4,13542.0,211.774,212.151,-0.37700000000001,-0.446724702176205,-0.0509952193442126
92.0,216.9,13692.0,211.422,211.148,0.274000000000001,0.324986798485866,0.0370984030926126
93.0,219.4,13842.0,210.693,210.905,-0.211999999999989,-0.251688269994746,-0.0287311144251095
94.0,221.9,13992.0,209.38,209.096,0.283999999999992,0.337483788384792,0.0385249790977755
95.0,224.4,14142.0,212.442,212.587,-0.144999999999982,-0.172466847137378,-0.0196877062238351
96.0,226.9,14292.0,208.873,209.042,-0.169000000000011,-0.201197712809244,-0.0229674370955522
97.0,229.4,14442.0,208.811,208.878,-0.0669999999999789,-0.079837255047955,-0.00911370764405241
98.0,231.9,14592.0,208.306,208.178,0.128000000000014,0.152662035057403,0.0174269162313201
99.0,234.4,14742.0,209.802,209.96,-0.158000000000015,-0.188609841494896,-0.0215304866524162
100.0,236.9,14892.0,208.097,207.792,0.305000000000007,0.36440914312726,0.0415986044521024
101.0,239.4,15042.0,207.789,208.143,-0.354000000000013,-0.423322060790808,-0.0483237242939758
102.0,241.9,15192.0,208.881,209.337,-0.455999999999989,-0.545766432457927,-0.0623011863868737
103.0,244.4,15342.0,206.861,207.103,-0.242000000000019,-0.289886425160218,-0.0330915701861593
104.0,246.9,15492.0,208.615,208.475,0.140000000000015,0.167844590762486,0.019160059159425
105.0,249.4,15642.0,206.186,206.399,-0.212999999999994,-0.255577168455932,-0.0291750460659376
106.0,251.9,15792.0,206.714,206.68,0.0339999999999918,0.0408301437241395,0.004660906649946
107.0,254.4,15942.0,206.714,206.84,-0.126000000000005,-0.151435797184882,-0.0172869368010966
108.0,256.9,16092.0,208.216,208.344,-0.127999999999986,-0.153964473126977,-0.017575594186035
109.0,259.4,16242.0,208.009,208.704,-0.695000000000022,-0.83665132508289,-0.0955067351981788
110.0,261.9,16392.0,206.637,206.564,0.0730000000000075,0.0879484866324656,0.0100396336825921
111.0,264.4,16542.0,207.847,208.225,-0.377999999999986,-0.455763822116817,-0.0520270671507132
112.0,266.9,16692.0,208.74,208.044,0.695999999999998,0.839840112212516,0.0958707466314511
113.0,269.4,16842.0,206.342,206.384,-0.0419999999999732,-0.0507192515814263,-0.00578978361118018
114.0,271.9,16992.0,207.999,207.685,0.313999999999993,0.379477710960382,0.0433187352577414
115.0,274.4,17142.0,207.216,207.317,-0.100999999999999,-0.122154097612679,-0.0139443262734458
116.0,276.9,17292.0,206.464,206.783,-0.318999999999988,-0.386104098314181,-0.0440751610271707
117.0,279.4,17442.0,205.124,204.923,0.200999999999993,0.243463535581845,0.0277922316335589
118.0,281.9,17592.0,204.717,204.503,0.214000000000027,0.259401755155626,0.0296116362896296
119.0,284.4,17742.0,204.856,204.992,-0.135999999999996,-0.164974378105853,-0.0188324141394015
120.0,286.9,17892.0,206.398,206.42,-0.0219999999999914,-0.0267064378288272,-0.00304863520720741
121.0,289.4,18042.0,206.437,205.591,0.846000000000004,1.02772430766001,0.117318398197352
122.0,291.9,18192.0,205.734,205.854,-0.120000000000005,-0.145880698349485,-0.016652802440024
123.0,294.4,18342.0,204.019,203.731,0.288000000000011,0.350361831438198,0.0399950536806976
124.0,296.9,18492.0,205.675,205.19,0.485000000000014,0.590433772040038,0.0674001226409377
125.0,299.4,18642.0,205.458,205.922,-0.463999999999999,-0.565262366101032,-0.0645267168032736
126.0,301.9,18792.0,203.899,203.94,-0.0409999999999968,-0.0499822868560681,-0.00570565645717345
127.0,304.4,18942.0,204.055,203.762,0.293000000000006,0.357435465626008,0.0408025342726837
128.0,306.9,19092.0,203.464,203.092,0.371999999999986,0.45411761083523,0.0518391462567432
129.0,309.4,19242.0,203.853,203.578,0.275000000000006,0.33593182758786,0.0383478172330574
130.0,311.9,19392.0,204.073,203.568,0.504999999999995,0.617306154662695,0.0704677010387033
131.0,314.4,19542.0,203.254,203.265,-0.0109999999999957,-0.0134552088377249,-0.00153596011740431
132.0,316.9,19692.0,204.892,204.918,-0.0260000000000105,-0.0318241956320842,-0.00363284552836557
133.0,319.4,19842.0,204.703,204.863,-0.159999999999997,-0.195969390883578,-0.0223706054851607
134.0,321.9,19992.0,205.37,205.236,0.134000000000015,0.164230991355118,0.0187475538882743
135.0,324.4,20142.0,205.58,205.389,0.191000000000003,0.23424140418701,0.0267394924162965
136.0,326.9,20292.0,203.556,203.431,0.125,0.153397489093307,0.0175108709347332
137.0,329.4,20442.0,203.095,202.853,0.24199999999999,0.297166293558921,0.0339225931494752
138.0,331.9,20592.0,202.088,202.402,-0.313999999999993,-0.385822732533291,-0.0440430421189426
139.0,334.4,20742.0,203.272,203.775,-0.503000000000014,-0.618440907620164,-0.0705972371393167
140.0,336.9,20892.0,203.257,203.225,0.0320000000000107,0.0393686365683678,0.00449407039124205
141.0,339.4,21042.0,203.266,202.896,0.370000000000005,0.4554811841816,0.0519948030215277
142.0,341.9,21192.0,201.211,201.241,-0.0300000000000011,-0.0369535764308482,-0.00421838265594932
143.0,344.4,21342.0,202.708,203.004,-0.295999999999992,-0.364830934825106,-0.0416467534800035
144.0,346.9,21492.0,202.876,203.113,-0.236999999999995,-0.292288188911998,-0.0333657400915582
145.0,349.4,21642.0,201.351,201.851,-0.5,-0.617012816652608,-0.0704342154577773
146.0,351.9,21792.0,203.251,202.961,0.289999999999992,0.358081395715919,0.0408762694981046
147.0,354.4,21942.0,202.912,202.543,0.369,0.455898385923068,0.0520424280895244
148.0,356.9,22092.0,200.938,200.723,0.214999999999975,0.265788666654152,0.0303407250353667
149.0,359.4,22242.0,200.237,200.208,0.0289999999999964,0.0358715975741916,0.00409487090732155
150.0,361.9,22392.0,202.617,202.145,0.47199999999998,0.584181614068118,0.0666864164912675
151.0,364.4,22542.0,201.625,201.844,-0.218999999999994,-0.27120746379531,-0.0309593000715109
152.0,366.9,22692.0,200.429,200.209,0.219999999999999,0.272602818328091,0.0311185847721675
153.0,369.4,22842.0,202.052,201.888,0.163999999999987,0.203329398858943,0.023210776667212
154.0,371.9,22992.0,200.338,200.094,0.244,0.302686729394099,0.0345527706053426
155.0,374.4,23142.0,202.227,201.922,0.305000000000007,0.37857262361113,0.0432154163061008
156.0,376.9,23292.0,201.423,201.034,0.38900000000001,0.483107066806861,0.0551483961342206
157.0,379.4,23442.0,199.14,199.562,-0.422000000000025,-0.52438384332499,-0.0598602875118632
158.0,381.9,23592.0,198.952,198.972,-0.0200000000000102,-0.0248661514321995,-0.00283855994610133
159.0,384.4,23742.0,200.504,200.384,0.120000000000005,0.149279524141322,0.017040790536324
160.0,386.9,23892.0,200.644,199.923,0.721000000000004,0.897415142953786,0.102443141905538
161.0,389.4,24042.0,198.244,197.979,0.264999999999986,0.330021227666049,0.0376731011540041
162.0,391.9,24192.0,200.079,199.902,0.177000000000021,0.220549412238482,0.025176502661593
163.0,394.4,24342.0,199.674,199.892,-0.217999999999989,-0.271784419469964,-0.0310251616212249
164.0,396.9,24492.0,200.043,200.017,0.0260000000000105,0.0324321429842054,0.00370224488868777
165.0,399.4,24642.0,200.207,199.631,0.575999999999993,0.718882398682317,0.0820629918715319
166.0,401.9,24792.0,197.897,197.839,0.0579999999999927,0.0724261309082901,0.00826770136938634
167.0,404.4,24942.0,199.594,199.794,-0.200000000000017,-0.249878039564544,-0.0285244701598561
168.0,406.9,25092.0,197.55,197.489,0.0610000000000071,0.0762531223088707,0.00870456609826816
169.0,409.4,25242.0,199.057,198.917,0.139999999999986,0.17509931789804,0.0199882121578102
170.0,411.9,25392.0,197.122,197.497,-0.375,-0.469261851450168,-0.0535679153805417
171.0,414.4,25542.0,197.669,197.088,0.581000000000017,0.72742234773377,0.0830378575392368
172.0,416.9,25692.0,197.503,197.268,0.234999999999985,0.294377000097032,0.033604185344374
173.0,419.4,25842.0,196.978,196.973,0.00499999999999545,0.00626657907545031,0.000715352370114499
174.0,421.9,25992.0,199.142,198.77,0.371999999999986,0.466473510586501,0.0532496163179278
175.0,424.4,26142.0,197.514,196.954,0.560000000000002,0.702578150541032,0.080201803747936
176.0,426.9,26292.0,198.719,198.854,-0.135000000000019,-0.169457971747364,-0.0193442323578374
177.0,429.4,26442.0,196.878,196.506,0.371999999999986,0.467188209285448,0.0533312017255409
178.0,431.9,26592.0,196.524,196.275,0.248999999999995,0.312872989788322,0.0357155685893586
179.0,434.4,26742.0,196.16,196.014,0.145999999999987,0.183544122870743,0.0209522167893075
180.0,436.9,26892.0,195.815,195.458,0.356999999999999,0.449028464765684,0.0512582020671181
181.0,439.4,27042.0,196.942,197.017,-0.0749999999999886,-0.0943808955048626,-0.0107739161159601
182.0,441.9,27192.0,195.589,195.157,0.431999999999988,0.543904825275183,0.0620886772819275
183.0,444.4,27342.0,197.237,197.254,-0.0169999999999959,-0.0214142859559235,-0.00244451718049672
184.0,446.9,27492.0,196.0,195.941,0.0589999999999975,0.0743569200003692,0.00848810783622897
185.0,449.4,27642.0,198.146,197.756,0.389999999999986,0.491753998652541,0.0561354742697632
186.0,451.9,27792.0,196.396,196.227,0.168999999999983,0.213198003561398,0.0243373131201359
187.0,454.4,27942.0,196.104,196.131,-0.0269999999999868,-0.0340778798517962,-0.0038901116266067
188.0,456.9,28092.0,196.083,195.931,0.151999999999987,0.191939349473651,0.0219105618729218
189.0,459.4,28242.0,195.59,195.467,0.12299999999999,0.155394783892593,0.0177388692654466
190.0,461.9,28392.0,197.711,197.562,0.149000000000001,0.18833358355369,0.0214989508223206
191.0,464.4,28542.0,194.874,195.274,-0.400000000000006,-0.505837432758776,-0.0577431485440278
192.0,466.9,28692.0,196.958,196.602,0.355999999999995,0.450411791824072,0.0514161137886407
193.0,469.4,28842.0,195.322,195.085,0.236999999999995,0.299996510183143,0.0342456724796326
194.0,471.9,28992.0,194.418,194.663,-0.245000000000005,-0.310271138328317,-0.0354185579578497
195.0,474.4,29142.0,196.188,196.171,0.0169999999999959,0.0215392710838622,0.00245878467898729
196.0,476.9,29292.0,194.175,194.433,-0.257999999999981,-0.327045315963284,-0.0373333902105702
197.0,479.4,29442.0,195.94,196.446,-0.506,-0.641718063004558,-0.0732544075146149
198.0,481.9,29592.0,193.934,193.92,0.01400000000001,0.017763424212763,0.00202775828070695
199.0,484.4,29742.0,193.812,193.908,-0.0959999999999752,-0.121863651272793,-0.0139111707869951
200.0,486.9,29892.0,193.508,193.794,-0.286000000000001,-0.363222460783982,-0.0414631404267361
201.0,489.4,30042.0,202.478,201.946,0.532000000000011,0.675960666400623,0.0771633229217832
202.0,491.9,30192.0,202.609,201.728,0.881,1.11992325429116,0.127843237060877
203.0,494.4,30342.0,200.083,199.534,0.549000000000007,0.698211023949928,0.079703280659035
204.0,496.9,30492.0,200.27,199.581,0.689000000000021,0.87666775877613,0.100074753943547
205.0,499.4,30642.0,202.428,201.724,0.704000000000008,0.896167915240528,0.102300766410071
206.0,501.9,30792.0,NA,202.062,-202.062,-257.336726520033,-29.3759058997248
207.0,504.4,30942.0,NA,199.974,-199.974,-254.794785244161,-29.0857342295849
208.0,506.9,31092.0,NA,199.659,-199.659,-254.510241857471,-29.0532525863121
209.0,509.4,31242.0,NA,201.629,-201.629,-257.139172712781,-29.3533544274555
210.0,511.9,31392.0,NA,199.76,-199.76,-254.872021005936,-29.0945509674857
211.0,514.4,31542.0,NA,199.565,-199.565,-254.739281513608,-29.0793982806208
212.0,516.9,31692.0,NA,125.774,-125.774,-160.62008732964,-18.3353563045877
213.0,519.4,31842.0,NA,127.601,-127.601,-163.027190745327,-18.6101357516817
214.0,521.9,31992.0,NA,125.723,-125.723,-160.700502432529,-18.3445359756256
215.0,524.4,32142.0,NA,127.734,-127.734,-163.34472034869,-18.6463828893324
216.0,526.9,32292.0,NA,125.799,-125.799,-160.942756548214,-18.3721901476608
217.0,529.4,32442.0,NA,125.891,-125.891,-161.132877372479,-18.39389311839
218.0,531.9,32592.0,NA,126.08,-126.08,-161.447191746898,-18.4297732261799
219.0,534.4,32742.0,NA,127.74,-127.74,-163.646082898709,-18.6807845001354
220.0,536.9,32892.0,NA,127.785,-127.785,-163.776877440471,-18.6957151639507
221.0,539.4,33042.0,NA,128.009,-128.009,-164.137127294639,-18.7368389707215
222.0,541.9,33192.0,NA,127.692,-127.692,-163.803524169873,-18.6987569832279
223.0,544.4,33342.0,NA,125.766,-125.766,-161.404504594298,-18.4249003353382
224.0,546.9,33492.0,NA,125.564,-125.564,-161.216699320097,-18.4034616929143
