"Frame","Time (aligned)","Time [ s]","Intensity Ch3-T2","background","Intensity (bg-subst)","bleach-Corrected","Normalized"
1.0,-150.639183333333,0.0,330.491,307.728,22.763,22.763,0.839737819450658
2.0,-146.604783333333,242.064,328.109,304.418,23.691,23.6914000543648,0.873986935877764
3.0,-142.57295,483.974,332.757,307.298,25.459,25.4598541897804,0.93922604405649
4.0,-138.58215,723.422,332.214,307.711,24.503,24.504225125496,0.903972436595003
5.0,-134.449233333333,971.397,329.947,306.66,23.287,23.2885423404112,0.859125324567115
6.0,-130.202633333333,1226.193,330.377,305.368,25.009,25.011057070998,0.922669706407586
7.0,-125.90295,1484.174,330.08,306.148,23.932,23.9343469241004,0.882949360629954
8.0,-121.906583333333,1723.956,332.199,310.789,21.41,21.4124337667607,0.78991479332387
9.0,-117.375933333333,1995.795,328.609,304.092,24.517,24.5201646566874,0.904560453427836
10.0,-112.7207,2275.109,329.492,304.975,24.517,24.5205374780569,0.904574206984215
11.0,-108.149483333333,2549.382,330.669,305.719,24.95,24.9539744650235,0.920563902116867
12.0,-104.075516666667,2793.82,332.2,307.053,25.147,25.1513784539289,0.927846228488358
13.0,-100.1007,3032.309,329.767,304.646,25.121,25.1257413656093,0.92690046419356
14.0,-96.1506,3269.315,330.203,305.537,24.666,24.6710116447402,0.9101252700521
15.0,-92.11495,3511.454,332.13,306.116,26.014,26.019656344464,0.959877409900086
16.0,-88.0940333333333,3752.709,332.384,307.966,24.418,24.4236529358442,0.901000090469862
17.0,-84.1111,3991.685,332.015,307.946,24.069,24.0749065285986,0.888134670816844
18.0,-80.09655,4232.558,331.914,306.95,24.964,24.9704685730312,0.921172377550341
19.0,-76.1225,4471.001,332.974,306.724,26.25,26.2571572772391,0.968638931466053
20.0,-72.0934833333333,4712.742,332.351,306.098,26.253,26.2605091144408,0.968762582323273
21.0,-68.1564,4948.967,329.539,305.012,24.527,24.5343392262829,0.90508335999392
22.0,-64.1455833333334,5189.616,328.983,303.96,25.023,25.0308138252134,0.92339854240039
23.0,-60.1001166666667,5432.344,330.889,305.668,25.221,25.2292002797535,0.930717112393102
24.0,-56.0681166666667,5674.264,330.569,303.587,26.982,26.9911157794286,0.995715007211599
25.0,-52.0908166666667,5912.902,328.224,301.69,26.534,26.5432974408526,0.979194777226718
26.0,-48.1190833333333,6151.206,329.584,304.31,25.274,25.2831691807977,0.932708050638544
27.0,-44.13165,6390.452,326.838,302.265,24.573,24.5822156212803,0.906849542814208
28.0,-40.153,6629.171,328.652,301.67,26.982,26.9924452053191,0.995764050360499
29.0,-36.1402166666667,6869.938,328.325,301.095,27.23,27.2408662620675,1.00492842045669
30.0,-32.1591333333333,7108.803,327.556,301.062,26.494,26.5048849109088,0.97777772085741
31.0,-28.1936666666667,7346.731,325.832,299.615,26.217,26.2280763802532,0.967566123443268
32.0,-24.22765,7584.692,325.347,297.662,27.685,27.6970149921019,1.02175596251636
33.0,-20.0145,7837.481,324.889,297.865,27.024,27.0360351062295,0.997372102389695
34.0,-16.0422666666667,8075.815,325.094,297.408,27.686,27.6986405770114,1.02181593111133
35.0,-12.0897833333333,8312.964,324.85,297.917,26.9330000000001,26.9455952903949,0.994035734874846
36.0,-8.13645,8550.164,327.563,302.401,25.162,25.1740425618246,0.928682318131383
37.0,-4.05968333333334,8794.77,326.279,298.433,27.846,27.8596282937995,1.02775484400743
38.0,0.0,9038.351,328.845,300.571,28.274,28.2881398550968,1.04356283786119
39.0,3.96258333333332,9276.106,327.337,297.016,30.321,30.3364836100675,1.11912720627856
40.0,7.92485,9513.842,328.37,299.445,28.925,28.9400723687846,1.06761293615549
41.0,11.9105166666667,9752.982,327.355,299.05,28.305,28.3200409200677,1.04473968321272
42.0,15.8622833333333,9990.088,327.229,298.442,28.787,28.8025900858344,1.06254114981372
43.0,19.8282333333333,10228.045,324.863,297.335,27.528,27.5431851274056,1.0160811061641
44.0,23.8149166666666,10467.246,322.005,298.115,23.89,23.903415738628,0.881808294591137
45.0,27.8073333333333,10706.791,317.579,302.199,15.38,15.3887878719194,0.567699651695926
46.0,31.7690333333333,10944.493,309.742,298.189,11.553,11.559713298106,0.426443282450745
47.0,35.7270333333333,11181.973,308.422,301.737,6.685,6.68894867170683,0.24675847524476
48.0,39.7318,11422.259,305.841,300.398,5.44299999999998,5.44626663266938,0.200915347988607
49.0,43.83685,11668.562,301.008,296.777,4.23099999999999,4.23357887246549,0.156178723842927
50.0,47.87465,11910.83,302.738,300.041,2.697,2.69866883452702,0.0995551677074714
51.0,52.02775,12160.016,302.4,301.838,0.561999999999955,0.562352892440265,0.0207454637639836
52.0,56.3308833333333,12418.204,300.137,299.041,1.096,1.09669811291413,0.0404577112829663
53.0,60.5488166666667,12671.28,302.424,299.84,2.584,2.58566900949088,0.0953865507995877
54.0,64.6336,12916.367,299.852,297.745,2.10699999999997,2.10837952780603,0.0777791164281617
55.0,68.52205,13149.674,301.963,299.566,2.39700000000005,2.39859033280984,0.0884851300720102
56.0,72.4904166666667,13387.776,300.309,297.185,3.12400000000002,3.12609964158505,0.115323292026979
57.0,76.4619833333333,13626.07,299.415,297.442,1.97300000000001,1.9743428911954,0.0728344416070084
58.0,80.4058833333333,13862.704,299.846,295.342,4.50400000000002,4.50710357492504,0.166269179284181
59.0,84.2930333333333,14095.933,299.352,298.88,0.47199999999998,0.472329178357284,0.0174244464392509
60.0,88.2076333333333,14330.809,299.435,296.053,3.382,3.38438653696145,0.124851617569133
61.0,92.0954666666666,14564.079,301.925,300.921,1.00400000000002,1.00471666756158,0.0370644723271931
62.0,96.0787,14803.073,299.606,297.476,2.13,2.13153759304025,0.0786334283906659
63.0,99.9811166666667,15037.218,299.917,299.012,0.904999999999973,0.905660511442336,0.0334102439503209
64.0,103.84895,15269.288,300.087,299.526,0.560999999999979,0.561413866723086,0.0207108226618375
65.0,107.829116666667,15508.098,299.269,298.369,0.899999999999977,0.900670973693383,0.0332261775465353
66.0,111.7604,15743.975,298.473,297.838,0.634999999999991,0.635478304950733,0.0234430947637627
67.0,115.65765,15977.81,297.861,296.876,0.985000000000014,0.985749448159395,0.0363647626464904
68.0,119.52025,16209.566,300.943,300.561,0.382000000000005,0.382293529711248,0.0141029888428511
69.0,123.334733333333,16438.435,298.852,298.285,0.56699999999995,0.567439913365895,0.0209331263681917
70.0,127.283466666667,16675.359,300.974,300.876,0.0980000000000132,0.0980767574308719,0.00361809789675313
71.0,131.23055,16912.184,299.91,299.073,0.837000000000046,0.837661679398827,0.0309017349249109
72.0,135.06065,17141.99,297.94,296.661,1.279,1.28002032989982,0.0472205544384566
73.0,138.92335,17373.752,300.179,298.987,1.19199999999995,1.19295943776761,0.0440088370146316
74.0,142.778116666667,17605.038,297.383,295.781,1.60199999999998,1.60330076391607,0.0591465223131598
75.0,146.57345,17832.758,298.277,298.354,-0.0769999999999982,-0.0770630593218905,-0.00284289265014106
76.0,150.438916666667,18064.686,298.554,297.707,0.84699999999998,0.847699510017461,0.031272035236632
77.0,154.301966666667,18296.469,300.955,299.875,1.07999999999998,1.08089932708919,0.0398748866131688
78.0,158.191733333333,18529.855,299.306,297.737,1.56899999999996,1.5703171453036,0.0579297410465767
79.0,162.1844,18769.415,301.77,299.264,2.50599999999997,2.50812052788013,0.0925257506919779
80.0,166.013216666667,18999.144,NA,297.456,-297.456,-297.709673456374,-10.9826504422802
81.0,169.839233333333,19228.705,NA,298.716,-298.716,-298.972707833514,-11.0292443769
82.0,173.731716666667,19462.254,NA,298.578,-298.578,-298.83652792626,-11.0242206358127
83.0,177.664816666667,19698.24,NA,297.644,-297.644,-297.903631948927,-10.9898056626641
84.0,181.525,19929.851,NA,296.958,-296.958,-297.218922347941,-10.964546402141
85.0,185.33035,20158.172,NA,297.156,-297.156,-297.418967106873,-10.9719261477658
86.0,189.195516666667,20390.082,NA,296.348,-296.348,-296.612098844108,-10.9421603965222
87.0,192.992616666667,20617.908,NA,297.797,-297.797,-298.064227229721,-10.9957300984111
88.0,196.782866666667,20845.323,NA,298.38,-298.38,-298.6495725553,-11.0173237638913
89.0,200.5689,21072.485,NA,296.59,-296.59,-296.859748505472,-10.9512963094783
90.0,204.426416666667,21303.936,NA,296.059,-296.059,-296.3300376761,-10.9317550268357
91.0,208.253466666667,21533.559,NA,298.352,-298.352,-298.626905045783,-11.0164875487609
92.0,212.160566666667,21767.985,NA,296.394,-296.394,-296.668840178194,-10.9442536111318
93.0,215.984533333333,21997.423,NA,296.515,-296.515,-296.791675294892,-10.9487850565936
94.0,219.979266666667,22237.107,NA,298.962,-298.962,-299.242678765385,-11.039203732066
95.0,223.762716666667,22464.114,NA,297.587,-297.587,-297.868083533847,-10.9884942648447
96.0,227.651833333333,22697.461,NA,296.793,-296.793,-297.075008405519,-10.959237348844
97.0,231.509966666667,22928.949,NA,298.231,-298.231,-298.516041573421,-11.012397742912
98.0,235.316233333333,23157.325,NA,297.218,-297.218,-297.503718655692,-10.9750526724243
99.0,239.111933333333,23385.067,NA,298.524,-298.524,-298.812610947391,-11.0233383271678
100.0,242.964066666667,23616.195,NA,299.612,-299.612,-299.903290091057,-11.0635739958328
101.0,246.749233333333,23843.305,NA,296.891,-296.891,-297.181242018764,-10.9631563570037
102.0,250.5201,24069.557,NA,296.687,-296.687,-296.978623931527,-10.9556816800825
103.0,254.297683333333,24296.212,NA,294.884,-294.884,-295.175408836878,-10.8891602237023
104.0,258.136166666667,24526.521,NA,294.869,-294.869,-295.161936691208,-10.8886632298866
105.0,261.9426,24754.907,NA,293.832,-293.832,-294.125429622956,-10.8504259946654
106.0,265.823466666667,24987.759,NA,295.252,-295.252,-295.548364202087,-10.9029187232469
107.0,269.768916666667,25224.486,NA,295.91,-295.91,-296.208530787993,-10.9272725803537
108.0,273.570483333333,25452.58,NA,295.222,-295.222,-295.521325740693,-10.9019212616376
109.0,277.370133333333,25680.559,NA,297.836,-297.836,-298.139464831333,-10.9985056490643
110.0,281.3893,25921.709,NA,298.446,-298.446,-298.75156486084,-11.0210863082069
111.0,285.194333333333,26150.011,NA,298.595,-298.595,-298.902183542736,-11.0266427025092
112.0,288.99535,26378.072,NA,298.776,-298.776,-299.084823841155,-11.0333803893668
113.0,292.8078,26606.819,NA,297.909,-297.909,-298.218364861627,-11.0014163084411
114.0,296.6552,26837.663,NA,296.179,-296.179,-296.487984734018,-10.9375817683901
115.0,300.4668,27066.359,NA,295.388,-295.388,-295.697559933501,-10.908422624234
116.0,304.260566666667,27293.985,NA,294.296,-294.296,-294.605798774987,-10.8681470395303
117.0,308.15145,27527.438,NA,296.106,-296.106,-296.419083977225,-10.9350399869348
118.0,312.059033333333,27761.893,NA,297.595,-297.595,-297.911033381364,-10.9900787050019
119.0,315.8831,27991.337,NA,297.959,-297.959,-298.276785039242,-11.0035714563812
120.0,319.77145,28224.638,NA,296.562,-296.562,-296.87964240933,-10.9520302049863
121.0,323.63155,28456.244,NA,295.116,-295.116,-295.433423225081,-10.8986784963262
122.0,327.5195,28689.521,NA,296.906,-296.906,-297.226675137581,-10.9648324062119
123.0,331.325716666667,28917.894,NA,298.303,-298.303,-298.62650588531,-11.0164728235426
124.0,335.230766666667,29152.197,NA,297.598,-297.598,-297.922049352448,-10.9904850893773
125.0,339.07025,29382.566,NA,296.103,-296.103,-296.426712391365,-10.9353214027348
126.0,342.97205,29616.674,NA,296.877,-296.877,-297.202842442766,-10.9639532068456
127.0,346.967366666667,29856.393,NA,297.844,-297.844,-298.172181563813,-10.9997125847754
128.0,350.849966666667,30089.349,NA,296.256,-296.256,-296.583692692653,-10.9411124801807
129.0,354.661416666667,30318.036,NA,296.079,-296.079,-296.407747108481,-10.9346217644932
130.0,358.517483333333,30549.4,NA,296.212,-296.212,-296.542135758983,-10.939579425273
131.0,362.315216666667,30777.264,NA,293.09,-293.09,-293.417874570872,-10.8243239546629
132.0,366.095983333333,31004.11,NA,296.379,-296.379,-296.711776448626,-10.9458375504239
133.0,369.986183333333,31237.522,NA,293.735,-293.735,-294.066010097139,-10.8482339802982
134.0,374.0067,31478.753,NA,294.822,-294.822,-295.155432666825,-10.8884232933557
135.0,377.835216666667,31708.464,NA,296.373,-296.373,-296.709381637173,-10.9457492046986
136.0,381.64225,31936.886,NA,295.021,-295.021,-295.357027615457,-10.8958602262106
137.0,385.49155,32167.844,NA,295.846,-295.846,-296.184142280195,-10.926372876784
138.0,389.301716666667,32396.454,NA,295.831,-295.831,-296.170291402639,-10.9258619113701
139.0,393.192,32629.871,NA,295.472,-295.472,-295.812035986211,-10.9126456998779
140.0,397.062533333333,32862.103,NA,296.639,-296.639,-296.981531453993,-10.9557889399593
141.0,401.010283333333,33098.968,NA,295.355,-295.355,-295.697188005289,-10.9084089036266
142.0,404.9377,33334.613,NA,294.149,-294.149,-294.490917204593,-10.8639090041475
143.0,408.92465,33573.83,NA,293.381,-293.381,-293.723139998986,-10.8355853404626
144.0,412.757766666667,33803.817,NA,296.045,-296.045,-296.391364462997,-10.9340174009648
145.0,416.591133333333,34033.819,NA,294.179,-294.179,-294.524284205213,-10.8651399285574
146.0,420.399016666667,34262.292,NA,294.848,-294.848,-295.195167181805,-10.8898891183773
147.0,424.228,34492.031,NA,296.495,-296.495,-296.845202731979,-10.9507597090252
148.0,428.107783333333,34724.818,NA,294.299,-294.299,-294.64768970138,-10.8696924155872
149.0,431.984166666667,34957.401,NA,295.955,-295.955,-296.306731240531,-10.9308952414214
150.0,435.8102,35186.963,NA,297.358,-297.358,-297.712475979116,-10.9827538286675
151.0,439.596366666667,35414.133,NA,296.278,-296.278,-296.632254798156,-10.9429039591853
152.0,443.42905,35644.094,NA,296.612,-296.612,-296.967714584659,-10.9552792291248
153.0,447.29595,35876.108,NA,295.599,-295.599,-295.954549625788,-10.9179030953416
154.0,451.104583333333,36104.626,NA,298.744,-298.744,-299.10438664024,-11.0341020702632
155.0,454.926733333333,36333.955,NA,298.088,-298.088,-298.448640373449,-11.009911280816
156.0,458.79865,36566.27,NA,296.127,-296.127,-296.486299459614,-10.9375195978215
157.0,462.774183333333,36804.802,NA,296.735,-296.735,-297.096064335934,-10.9600141120604
158.0,466.7332,37042.343,NA,297.172,-297.172,-297.534618307679,-10.9761925751779
159.0,470.544883333333,37271.044,NA,295.962,-295.962,-296.324153572058,-10.9315379594589
160.0,474.365516666667,37500.282,NA,295.86,-295.86,-296.223033921797,-10.9278076078086
161.0,478.1942,37730.003,NA,296.265,-296.265,-296.629531265232,-10.9428034867696
162.0,482.065316666667,37962.27,NA,296.107,-296.107,-296.472330661087,-10.9370042822473
163.0,485.913066666667,38193.135,NA,293.914,-293.914,-294.277605506527,-10.8560398348729
164.0,489.769566666667,38424.525,NA,296.501,-296.501,-296.868789195061,-10.9516298247866
165.0,493.581933333333,38653.267,NA,296.693,-296.693,-297.062005467217,-10.9587576643096
166.0,497.371666666667,38880.651,NA,296.987,-296.987,-297.357344483816,-10.969652860101
167.0,501.1822,39109.283,NA,297.042,-297.042,-297.413380975898,-10.9717200727562
168.0,504.950433333333,39335.377,NA,295.792,-295.792,-296.162776452542,-10.9255846813122
169.0,508.733166666667,39562.341,NA,295.257,-295.257,-295.628056966815,-10.9058586269713
170.0,512.505533333333,39788.683,NA,294.774,-294.774,-295.145394206388,-10.8880529698097
171.0,516.352216666667,40019.484,NA,294.732,-294.732,-295.104280128041,-10.886536252044
172.0,520.243183333333,40252.942,NA,297.438,-297.438,-297.814640338976,-10.9865227201482
173.0,524.194333333333,40490.011,NA,294.753,-294.753,-295.127168981453,-10.8873806326553
174.0,528.055916666667,40721.706,NA,297.152,-297.152,-297.530145442272,-10.9760275690608
175.0,531.848483333333,40949.26,NA,295.959,-295.959,-296.336549647079,-10.9319952565202
176.0,535.671383333333,41178.634,NA,295.802,-295.802,-296.180266349159,-10.9262298918578
177.0,539.542366666667,41410.893,NA,295.716,-295.716,-296.09506826366,-10.9230868942503
178.0,543.349883333333,41639.344,NA,296.049,-296.049,-296.429403280325,-10.9354206708993
179.0,547.1964,41870.135,NA,292.427,-292.427,-292.803641662607,-10.8016646126156
180.0,551.0863,42103.529,NA,295.289,-295.289,-295.67022441314,-10.9074142039792
181.0,554.8899,42331.745,NA,295.492,-295.492,-295.874379100257,-10.9149455667956
182.0,558.719783333333,42561.538,NA,295.368,-295.368,-295.751106400426,-10.9103979786853
183.0,562.535433333333,42790.477,NA,295.963,-295.963,-296.347763277474,-10.932408932641
184.0,566.359683333333,43019.932,NA,297.203,-297.203,-297.590259798641,-10.9782452160552
185.0,570.1712,43248.623,NA,295.512,-295.512,-295.897931563247,-10.9158144282775
186.0,573.983783333333,43477.378,NA,294.276,-294.276,-294.661184680805,-10.870190251751
187.0,577.7898,43705.739,NA,295.137,-295.137,-295.524177357698,-10.9020264591356
188.0,581.772433333333,43944.697,NA,295.989,-295.989,-296.378159155005,-10.933530250917
189.0,585.63995,44176.748,NA,294.796,-294.796,-295.184447220253,-10.8894936539333
190.0,589.436716666667,44404.554,NA,293.72,-293.72,-294.107878915282,-10.8497785407713
191.0,593.246366666667,44633.133,NA,295.434,-295.434,-295.824992946451,-10.9131236882598
192.0,597.053416666667,44861.556,NA,294.904,-294.904,-295.29513671366,-10.8935770416164
193.0,600.851766666667,45089.457,NA,294.487,-294.487,-294.878423858642,-10.878204307609
194.0,604.67705,45318.974,NA,293.58,-293.58,-293.971052217413,-10.8447309392728
195.0,608.497566666667,45548.205,NA,292.363,-292.363,-292.753257975165,-10.799805934593
196.0,612.350416666667,45779.376,NA,292.285,-292.285,-292.675976865223,-10.7969549979526
197.0,616.1446,46007.027,NA,294.522,-294.522,-294.916794946469,-10.879619835159
198.0,620.064883333333,46242.244,NA,293.273,-293.273,-293.666939459914,-10.8335120760364
199.0,623.934533333333,46474.423,NA,296.916,-296.916,-297.315658359041,-10.9681150392724
200.0,627.792016666667,46705.872,NA,294.784,-294.784,-295.18160471686,-10.8893887926408
201.0,631.6303,46936.169,NA,293.909,-293.909,-294.306234843834,-10.8570959846459
202.0,635.46895,47166.488,NA,297.468,-297.468,-297.870861837653,-10.9885967577841
203.0,639.382016666667,47401.272,NA,294.633,-294.633,-295.032828148374,-10.8839003547721
204.0,643.338816666667,47638.68,NA,293.892,-293.892,-294.2916231164,-10.8565569511207
205.0,647.143483333333,47866.96,NA,293.834,-293.834,-294.234341473161,-10.8544438042513
206.0,650.967166666667,48096.381,NA,295.061,-295.061,-295.463810663749,-10.8997995032886
207.0,654.772083333333,48324.676,NA,295.885,-295.885,-296.289732150438,-10.9302681369604
208.0,658.5348,48550.439,NA,291.885,-291.885,-292.285043489387,-10.7825332811061
209.0,662.288266666667,48775.647,NA,293.181,-293.181,-293.583603056263,-10.8304377567515
210.0,666.0211,48999.617,NA,294.015,-294.015,-294.419530958638,-10.8612755318232
211.0,669.921666666667,49233.651,NA,293.356,-293.356,-293.760402253671,-10.8369599626344
212.0,673.737583333333,49462.606,NA,296.53,-296.53,-296.93956128897,-10.9542406407519
213.0,677.50845,49688.858,NA,296.042,-296.042,-296.451666724098,-10.9362419798536
214.0,681.306016666667,49916.712,NA,296.497,-296.497,-296.908074228771,-10.9530790682319
215.0,685.112916666667,50145.126,NA,295.627,-295.627,-296.037640886788,-10.9209683711984
216.0,688.967616666667,50376.408,NA,294.665,-294.665,-295.075072282456,-10.8854587608274
217.0,692.864583333333,50610.226,NA,296.885,-296.885,-297.298932544231,-10.9674980160656
218.0,696.656383333333,50837.734,NA,296.191,-296.191,-296.604731302618,-10.9418886044374
219.0,700.678366666667,51079.053,NA,298.116,-298.116,-298.533188976535,-11.0130303187105
220.0,704.5081,51308.837,NA,294.573,-294.573,-294.985987935582,-10.8821723972027
221.0,708.292666666667,51535.911,NA,296.64,-296.64,-297.056645752852,-10.9585599419157
222.0,712.08525,51763.466,NA,294.325,-294.325,-294.739145749347,-10.8730662723853
223.0,715.857333333333,51989.791,NA,294.751,-294.751,-295.166495379446,-10.8888314020485
224.0,719.614083333333,52215.196,NA,296.305,-296.305,-296.72343774244,-10.9462677410596
225.0,723.3868,52441.559,NA,295.923,-295.923,-296.341646735277,-10.9321832905109
226.0,727.1919,52669.865,NA,294.992,-294.992,-295.410073419204,-10.8978171109608
227.0,731.07565,52902.89,NA,294.768,-294.768,-295.186496903759,-10.8895692677258
228.0,734.912633333333,53133.109,NA,292.98,-292.98,-293.396692615712,-10.8235425423342
