"Frame","Time (aligned)","Time [ s]","Intensity Ch3-T2","background","Intensity (bg-subst)","bleach-Corrected","Normalized"
1.0,-234.932216666667,0.0,NA,293.359,-293.359,-293.359,-7.31338371320418
2.0,-230.897816666667,242.064,NA,295.811,-295.811,-295.81599516617,-7.37463613236189
3.0,-226.865983333333,483.974,NA,296.929,-296.929,-296.938962438324,-7.40263149149059
4.0,-222.875183333333,723.422,NA,295.0,-295.0,-295.014749704988,-7.35466123639455
5.0,-218.742266666667,971.397,NA,297.763,-297.763,-297.78272138566,-7.42366624052954
6.0,-214.495666666667,1226.193,NA,297.07,-297.07,-297.094434966667,-7.40650739186057
7.0,-210.195983333333,1484.174,NA,295.912,-295.912,-295.941019012386,-7.37775295291513
8.0,-206.199616666667,1723.956,NA,298.302,-298.302,-298.335909271006,-7.43745710861618
9.0,-201.668966666667,1995.795,NA,295.222,-295.222,-295.260107283786,-7.36077795386595
10.0,-197.013733333333,2275.109,NA,296.608,-296.608,-296.650796602011,-7.395447572354
11.0,-192.442516666667,2549.382,NA,298.773,-298.773,-298.820593700941,-7.44954019867283
12.0,-188.36855,2793.82,NA,296.664,-296.664,-296.715653463886,-7.3970644415052
13.0,-184.393733333333,3032.309,NA,296.405,-296.405,-296.460943810893,-7.39071457861434
14.0,-180.443633333333,3269.315,NA,296.289,-296.289,-296.349200081425,-7.38792882882946
15.0,-176.407983333333,3511.454,NA,298.222,-298.222,-298.286843790218,-7.43623391557259
16.0,-172.387066666667,3752.709,NA,298.236,-298.236,-298.305043696225,-7.4366876357454
17.0,-168.404133333333,3991.685,NA,298.347,-298.347,-298.420214304201,-7.43955881695549
18.0,-164.389583333333,4232.558,NA,296.339,-296.339,-296.415786190654,-7.38958880778617
19.0,-160.415533333333,4471.001,NA,296.7,-296.7,-296.780897682166,-7.3986909673774
20.0,-156.386516666667,4712.742,NA,298.732,-298.732,-298.817445959514,-7.44946172608164
21.0,-152.449433333333,4948.967,335.209,296.106,39.103,39.1147008099377,0.975122003586912
22.0,-148.438616666667,5189.616,335.702,297.669,38.033,38.0448764022835,0.948451485897233
23.0,-144.39315,5432.344,333.967,297.192,36.775,36.7869569124117,0.917091793814322
24.0,-140.36115,5674.264,333.334,296.474,36.86,36.8724530290467,0.919223195635777
25.0,-136.38385,5912.902,330.231,293.925,36.306,36.318721522861,0.905418775185659
26.0,-132.412116666667,6151.206,330.843,293.605,37.238,37.2515096128253,0.928673003707762
27.0,-128.424683333333,6390.452,331.847,293.25,38.597,38.6114750471881,0.962576681652498
28.0,-124.446033333333,6629.171,331.543,293.495,38.048,38.0627290479572,0.948896548936403
29.0,-120.43325,6869.938,331.957,292.836,39.121,39.1366114226348,0.975668230967169
30.0,-116.452166666667,7108.803,334.724,294.526,40.198,40.2145151222433,1.00254016385868
31.0,-112.4867,7346.731,331.914,294.737,37.177,37.192706853899,0.927207062184159
32.0,-108.520683333333,7584.692,327.543,292.36,35.183,35.1982690434213,0.877486109357942
33.0,-104.307533333333,7837.481,329.015,292.302,36.713,36.7293500908453,0.915655666780165
34.0,-100.3353,8075.815,330.697,294.145,36.552,36.568688520224,0.911650404579519
35.0,-96.3828166666667,8312.964,329.799,291.967,37.832,37.8496922372634,0.943585582026777
36.0,-92.4294833333333,8550.164,329.513,292.341,37.172,37.1897905614873,0.927134359572592
37.0,-88.3527166666667,8794.77,331.467,294.547,36.92,36.9380692597528,0.920858995706572
38.0,-84.2930333333333,9038.351,330.601,292.346,38.255,38.274131362974,0.954166768181688
39.0,-80.33045,9276.106,331.395,292.793,38.602,38.6217123549958,0.962831895776447
40.0,-76.3681833333333,9513.842,334.159,295.028,39.131,39.1513905570582,0.976036671959223
41.0,-72.3825166666667,9752.982,330.562,293.601,36.961,36.9806406093137,0.921920291301824
42.0,-68.43075,9990.088,334.267,295.949,38.318,38.3387517597875,0.955777742304167
43.0,-64.4648,10228.045,332.97,295.447,37.523,37.5436986172494,0.935957219655229
44.0,-60.4781166666667,10467.246,331.692,293.384,38.308,38.3295123530918,0.955547405663913
45.0,-56.4857,10706.791,333.473,295.132,38.341,38.3629073990418,0.956379937766739
46.0,-52.524,10944.493,330.478,293.294,37.184,37.205607138992,0.927528663822064
47.0,-48.566,11181.973,332.01,293.361,38.649,38.6718290520265,0.964081295439741
48.0,-44.5612333333334,11422.259,331.236,292.91,38.326,38.3490014631062,0.956033265445834
49.0,-40.4561833333334,11668.562,331.046,292.705,38.341,38.3643695460174,0.956416388810945
50.0,-36.4183833333333,11910.83,333.707,294.439,39.268,39.2922980327055,0.979549468353633
51.0,-32.2652833333334,12160.016,329.838,291.834,38.004,38.0278635663729,0.948027359154695
52.0,-27.96215,12418.204,333.014,294.003,39.011,39.0358486157782,0.973156233480945
53.0,-23.7442166666667,12671.28,331.724,291.415,40.309,40.3350356437955,1.00554471739011
54.0,-19.6594333333333,12916.367,329.874,291.976,37.898,37.9228131679136,0.945408472830575
55.0,-15.7709833333333,13149.674,333.876,294.043,39.833,39.8594279210732,0.993687907906738
56.0,-11.8026166666667,13387.776,333.282,293.985,39.297,39.3234115286065,0.980325121850485
57.0,-7.83105000000002,13626.07,331.066,291.684,39.3819999999999,39.4088047344433,0.982453958125441
58.0,-3.88715000000002,13862.704,334.55,293.901,40.649,40.6770100393266,1.01407007360761
59.0,0.0,14095.933,331.597,291.373,40.224,40.2520526911953,1.00347596826695
60.0,3.91459999999997,14330.809,326.857,294.089,32.768,32.7911230168991,0.817476419709177
61.0,7.80243333333331,14564.079,317.424,294.433,22.991,23.0074112588724,0.573570358446914
62.0,11.7856666666667,14803.073,311.859,295.012,16.847,16.8591614225114,0.420295666966668
63.0,15.6880833333333,15037.218,304.37,293.288,11.082,11.0900881633196,0.276473774970668
64.0,19.5559166666667,15269.288,301.052,293.217,7.83500000000004,7.840780117247,0.195469147386954
65.0,23.5360833333333,15508.098,300.126,292.894,7.23199999999997,7.23739164638965,0.180426788313248
66.0,27.4673666666667,15743.975,300.556,294.885,5.67099999999999,5.67527160216639,0.141483434642516
67.0,31.3646166666666,15977.81,299.574,294.463,5.11099999999999,5.11488876095694,0.127513197683499
68.0,35.2272166666667,16209.566,298.75,294.425,4.32499999999999,4.32832334031707,0.107904272316705
69.0,39.0417,16438.435,298.272,294.19,4.08199999999999,4.08516706589027,0.10184243294189
70.0,42.9904333333333,16675.359,296.916,294.078,2.83800000000002,2.84022283253856,0.070806211520213
71.0,46.9375166666667,16912.184,294.321,291.672,2.649,2.65109413229077,0.066091269227351
72.0,50.7676166666667,17141.99,294.046,291.278,2.76799999999997,2.77020818855565,0.0690607598484034
73.0,54.6303166666667,17373.752,293.657,291.047,2.60999999999996,2.61210078236036,0.065119172477961
74.0,58.4850833333333,17605.038,294.145,291.304,2.84100000000001,2.84330678544672,0.0708830938758618
75.0,62.2804166666667,17832.758,294.463,291.089,3.37400000000002,3.37676314483203,0.0841820587974554
76.0,66.1458833333333,18064.686,295.278,291.434,3.84399999999999,3.84717463578181,0.095909327217433
77.0,70.0089333333333,18296.469,297.299,294.359,2.94,2.94244816818728,0.0733546695692594
78.0,73.8987,18529.855,297.016,294.782,2.23400000000004,2.23587540000535,0.0557399457154987
79.0,77.8913666666667,18769.415,295.219,292.68,2.53899999999999,2.54114845183068,0.0633503444600388
80.0,81.7201833333333,18999.144,298.228,295.173,3.05500000000001,3.05760533460151,0.0762255156837898
81.0,85.5462,19228.705,298.141,294.729,3.41200000000003,3.41493217346229,0.08513360537463
82.0,89.4386833333333,19462.254,295.153,292.695,2.45800000000003,2.46012829358746,0.0613305274244707
83.0,93.3717833333333,19698.24,294.455,291.953,2.50200000000001,2.5041824701194,0.0624287896122588
84.0,97.2319666666666,19929.851,296.186,293.799,2.387,2.38909733916761,0.0595597393280174
85.0,101.037316666667,20158.172,293.986,291.866,2.12,2.12187608618561,0.0528979646445048
86.0,104.902483333333,20390.082,293.974,291.527,2.447,2.44918071278205,0.061057606330653
87.0,108.699583333333,20617.908,293.552,291.26,2.29200000000003,2.29405671920983,0.0571903948657985
88.0,112.489833333333,20845.323,294.424,291.458,2.96599999999995,2.96867964407469,0.0740086152417229
89.0,116.275866666667,21072.485,296.791,293.524,3.267,3.26997133540367,0.0815197594312284
90.0,120.133383333333,21303.936,294.549,291.216,3.33299999999997,3.33605131265874,0.0831671206147139
91.0,123.960433333333,21533.559,294.186,291.779,2.40699999999998,2.40921783814151,0.0600613395158324
92.0,127.867533333333,21767.985,294.834,292.288,2.54599999999999,2.54836085444942,0.0635301482766762
93.0,131.6915,21997.423,297.311,294.85,2.46099999999996,2.46329633543233,0.061409506101215
94.0,135.686233333333,22237.107,295.335,292.871,2.464,2.46631331232033,0.0614847187575024
95.0,139.469683333333,22464.114,295.573,292.699,2.87399999999997,2.87671461480597,0.0717159446666318
96.0,143.3588,22697.461,295.838,292.718,3.12,3.1229645787644,0.0778549091292549
97.0,147.216933333333,22928.949,296.259,294.51,1.74900000000002,1.75067164953315,0.0436439090972632
98.0,151.0232,23157.325,296.504,294.061,2.44300000000004,2.44534848049536,0.060962069513338
99.0,154.8189,23385.067,296.361,294.138,2.22300000000001,2.22514918109115,0.0554725431312543
100.0,158.671033333333,23616.195,295.87,293.585,2.28500000000002,2.28722153270922,0.0570199949747766
101.0,162.4562,23843.305,294.649,291.541,3.108,3.11103839521683,0.0775575916564061
102.0,166.227066666667,24069.557,296.37,293.353,3.017,3.01996551382911,0.075287162157207
103.0,170.00465,24296.212,297.04,293.36,3.68000000000001,3.68363663175931,0.0918323560827206
104.0,173.843133333333,24526.521,NA,293.177,-293.177,-293.468255779069,-7.31610743886187
105.0,177.649566666667,24754.907,NA,293.115,-293.115,-293.407713604824,-7.31459813404736
106.0,181.530433333333,24987.759,NA,291.672,-291.672,-291.964770716375,-7.27862584405635
107.0,185.475883333333,25224.486,NA,294.149,-294.149,-294.445754191333,-7.34047628716015
108.0,189.27745,25452.58,NA,292.094,-292.094,-292.390154259852,-7.28923057436539
109.0,193.0771,25680.559,NA,292.673,-292.673,-292.971204255297,-7.30371603952326
110.0,197.096266666667,25921.709,NA,294.67,-294.67,-294.971698791553,-7.3535879853637
111.0,200.9013,26150.011,NA,294.645,-294.645,-294.948119928162,-7.353000168813
112.0,204.702316666667,26378.072,NA,294.47,-294.47,-294.774373030313,-7.34866869190945
113.0,208.514766666667,26606.819,NA,293.79,-293.79,-294.095087468648,-7.33173423289065
114.0,212.362166666667,26837.663,NA,291.946,-291.946,-292.250568714046,-7.28575073342889
115.0,216.173766666667,27066.359,NA,291.631,-291.631,-291.936622682596,-7.27792411896255
116.0,219.967533333333,27293.985,NA,293.484,-293.484,-293.792944000865,-7.32420185407719
117.0,223.858416666667,27527.438,NA,293.224,-293.224,-293.534036730556,-7.3177473453902
118.0,227.766,27761.893,NA,293.296,-293.296,-293.607468024061,-7.31957797348057
119.0,231.590066666667,27991.337,NA,291.121,-291.121,-291.431492042224,-7.26533130879365
120.0,235.478416666667,28224.638,NA,291.0,-291.0,-291.311685047697,-7.26234454335436
121.0,239.338516666667,28456.244,NA,291.365,-291.365,-291.678388694533,-7.27148639507304
122.0,243.226466666667,28689.521,NA,294.048,-294.048,-294.365588337237,-7.33847776776343
123.0,247.032683333333,28917.894,NA,292.277,-292.277,-292.593970763421,-7.29431168078343
124.0,250.937733333333,29152.197,NA,292.81,-292.81,-293.128835781457,-7.30764576329553
125.0,254.777216666667,29382.566,NA,292.533,-292.533,-292.852809515551,-7.30076448132532
126.0,258.679016666667,29616.674,NA,294.665,-294.665,-294.98841462423,-7.35400470787249
127.0,262.674333333333,29856.393,NA,294.128,-294.128,-294.452087062359,-7.34063416442256
128.0,266.556933333333,30089.349,NA,293.753,-293.753,-294.07792409114,-7.33130635317492
129.0,270.368383333333,30318.036,NA,291.401,-291.401,-291.724552957685,-7.27263726131636
130.0,274.22445,30549.4,NA,290.905,-290.905,-291.229220973381,-7.2602887297675
131.0,278.022183333333,30777.264,NA,292.695,-292.695,-293.022432691397,-7.30499315462873
132.0,281.80295,31004.11,NA,290.628,-290.628,-290.954319184933,-7.25343548080508
133.0,285.69315,31237.522,NA,290.292,-290.292,-290.619130178966,-7.24507928305052
134.0,289.713666666667,31478.753,NA,292.442,-292.442,-292.772740975747,-7.29876838795528
135.0,293.542183333333,31708.464,NA,292.284,-292.284,-292.615740645874,-7.29485439978563
136.0,297.349216666667,31936.886,NA,292.829,-292.829,-293.162530937142,-7.30848577707659
137.0,301.198516666667,32167.844,NA,291.562,-291.562,-291.895245808624,-7.27689260141508
138.0,305.008683333333,32396.454,NA,294.079,-294.079,-294.416282017086,-7.33974155149796
139.0,308.898966666667,32629.871,NA,292.209,-292.209,-292.545280850621,-7.29309785057788
140.0,312.7695,32862.103,NA,294.401,-294.401,-294.740947217281,-7.34783539278916
141.0,316.71725,33098.968,NA,291.641,-291.641,-291.978885094379,-7.27897771279814
142.0,320.644666666667,33334.613,NA,293.723,-293.723,-294.0644220245,-7.33096974923823
143.0,324.631616666667,33573.83,NA,291.217,-291.217,-291.556616348996,-7.26845063380932
144.0,328.464733333333,33803.817,NA,290.936,-290.936,-291.276387074284,-7.26146457163416
145.0,332.2981,34033.819,NA,292.913,-292.913,-293.256798273845,-7.31083584373529
146.0,336.105983333333,34262.292,NA,292.793,-292.793,-293.137747533177,-7.30786793155995
147.0,339.934966666667,34492.031,NA,292.441,-292.441,-292.786414381837,-7.29910926335164
148.0,343.81475,34724.818,NA,292.415,-292.415,-292.761457510998,-7.29848709333905
149.0,347.691133333333,34957.401,NA,292.819,-292.819,-293.167004224024,-7.30859729526226
150.0,351.517166666667,35186.963,NA,290.463,-290.463,-290.80925655379,-7.24981909717958
151.0,355.303333333333,35414.133,NA,290.838,-290.838,-291.185750278408,-7.25920501366328
152.0,359.136016666667,35644.094,NA,291.181,-291.181,-291.530201409503,-7.26779211442429
153.0,363.002916666667,35876.108,NA,291.565,-291.565,-291.91569748762,-7.27740245785744
154.0,366.81155,36104.626,NA,292.042,-292.042,-292.394301753974,-7.28933397059991
155.0,370.6337,36333.955,NA,291.922,-291.922,-292.275180467171,-7.28636429972294
156.0,374.505616666667,36566.27,NA,291.871,-291.871,-292.225135531637,-7.28511668906002
157.0,378.48115,36804.802,NA,293.509,-293.509,-293.866138969706,-7.32602659063893
158.0,382.440166666667,37042.343,NA,290.725,-290.725,-291.079751482307,-7.25656248396751
159.0,386.25185,37271.044,NA,293.214,-293.214,-293.572790984915,-7.31871348153277
160.0,390.072483333333,37500.282,NA,291.399,-291.399,-291.7565600682,-7.27343519245448
161.0,393.901166666667,37730.003,NA,290.624,-290.624,-290.981590449182,-7.25411534820236
162.0,397.772283333333,37962.27,NA,292.352,-292.352,-292.712697820147,-7.29727152358005
163.0,401.620033333333,38193.135,NA,290.22,-290.22,-290.579035602606,-7.24407973293704
164.0,405.476533333333,38424.525,NA,290.195,-290.195,-290.554967033706,-7.24347970812173
165.0,409.2889,38653.267,NA,292.149,-292.149,-292.512353966025,-7.29227698964799
166.0,413.078633333333,38880.651,NA,290.722,-290.722,-291.084531993063,-7.25668166118555
167.0,416.889166666667,39109.283,NA,293.161,-293.161,-293.527528700572,-7.31758510144853
168.0,420.6574,39335.377,NA,291.246,-291.246,-291.611078023398,-7.26980835292673
169.0,424.440133333333,39562.341,NA,291.359,-291.359,-291.725158251267,-7.27265235116947
170.0,428.2125,39788.683,NA,291.847,-291.847,-292.214706395245,-7.28485669268618
171.0,432.059183333333,40019.484,NA,294.034,-294.034,-294.405398474439,-7.33947022686315
172.0,435.95015,40252.942,NA,293.994,-293.994,-294.366279264307,-7.33849499244303
173.0,439.9013,40490.011,NA,293.493,-293.493,-293.865569496743,-7.32601239378698
174.0,443.762883333333,40721.706,NA,290.894,-290.894,-291.264181726134,-7.26116029464122
175.0,447.55545,40949.26,NA,290.809,-290.809,-291.179979883421,-7.25906115882086
176.0,451.37835,41178.634,NA,292.432,-292.432,-292.805956852954,-7.29959645341563
177.0,455.249333333333,41410.893,NA,292.835,-292.835,-293.210375207932,-7.3096785255887
178.0,459.05685,41639.344,NA,292.906,-292.906,-293.282364734307,-7.31147321070052
179.0,462.903366666667,41870.135,NA,290.459,-290.459,-290.833106907636,-7.25041368193535
180.0,466.793266666667,42103.529,NA,292.386,-292.386,-292.763476578066,-7.29853742829455
181.0,470.596866666667,42331.745,NA,290.185,-290.185,-290.560511618616,-7.24361793356216
182.0,474.42675,42561.538,NA,290.922,-290.922,-291.29933972612,-7.26203677685068
183.0,478.2424,42790.477,NA,291.642,-291.642,-292.021145811365,-7.28003126438277
184.0,482.06665,43019.932,NA,292.27,-292.27,-292.650832028441,-7.29572922123559
185.0,485.878166666667,43248.623,NA,292.661,-292.661,-293.04320822583,-7.30551108472516
186.0,489.69075,43477.378,NA,294.806,-294.806,-295.191878410096,-7.35907702110569
187.0,493.496766666667,43705.739,NA,294.422,-294.422,-294.808239380383,-7.34951297353378
188.0,497.4794,43944.697,NA,293.646,-293.646,-294.032078635458,-7.3301634347408
189.0,501.346916666667,44176.748,NA,293.816,-293.816,-294.203155892434,-7.33442835800844
190.0,505.143683333333,44404.554,NA,293.392,-293.392,-293.779445767099,-7.32386534569335
191.0,508.953333333333,44633.133,NA,293.498,-293.498,-293.886430741883,-7.3265324606349
192.0,512.760383333333,44861.556,NA,293.605,-293.605,-293.994413825564,-7.32922445824021
193.0,516.558733333333,45089.457,NA,291.183,-291.183,-291.570032274534,-7.26878509026482
194.0,520.384016666667,45318.974,NA,292.781,-292.781,-293.170987939459,-7.30869660852546
195.0,524.204533333333,45548.205,NA,290.789,-290.789,-291.177156936207,-7.25899078328722
196.0,528.057383333333,45779.376,NA,290.299,-290.299,-290.687320279855,-7.24677924921226
197.0,531.851566666667,46007.027,NA,291.029,-291.029,-291.419112719851,-7.26502269465662
198.0,535.77185,46242.244,NA,294.073,-294.073,-294.468014061285,-7.34103122145693
199.0,539.6415,46474.423,NA,291.889,-291.889,-292.281891857502,-7.28653161339915
200.0,543.498983333333,46705.872,NA,292.139,-292.139,-292.533037140343,-7.29279261722441
201.0,547.337266666667,46936.169,NA,293.848,-293.848,-294.245152398841,-7.3354753228739
202.0,551.175916666667,47166.488,NA,293.212,-293.212,-293.609097923615,-7.31961860656443
203.0,555.088983333333,47401.272,NA,292.61,-292.61,-293.007082860697,-7.30461048628776
204.0,559.045783333333,47638.68,NA,290.437,-290.437,-290.831925139364,-7.25038422067856
205.0,562.85045,47866.96,NA,290.195,-290.195,-290.59038342671,-7.24436263201967
206.0,566.674133333333,48096.381,NA,290.083,-290.083,-290.479014809725,-7.2415862337172
207.0,570.47905,48324.676,NA,290.261,-290.261,-290.658039250784,-7.2460492787627
208.0,574.241766666667,48550.439,NA,291.948,-291.948,-292.348129834145,-7.28818291347714
209.0,577.995233333333,48775.647,NA,289.946,-289.946,-290.34416067805,-7.23822434602922
210.0,581.728066666667,48999.617,NA,290.068,-290.068,-290.467100338793,-7.2412892082376
211.0,585.628633333333,49233.651,NA,290.237,-290.237,-290.637102595136,-7.24552733194523
212.0,589.44455,49462.606,NA,290.429,-290.429,-290.830134710128,-7.25033958562045
213.0,593.215416666667,49688.858,NA,293.362,-293.362,-293.767958105657,-7.32357896049263
214.0,597.012983333333,49916.712,NA,291.428,-291.428,-291.832046382736,-7.27531705182575
215.0,600.819883333333,50145.126,NA,291.761,-291.761,-292.166270816841,-7.28364920298844
216.0,604.674583333333,50376.408,NA,291.337,-291.337,-291.742440851658,-7.27308320308887
217.0,608.57155,50610.226,NA,291.029,-291.029,-291.434767803746,-7.26541297290131
218.0,612.36335,50837.734,NA,290.507,-290.507,-290.912791666626,-7.25240020772318
219.0,616.385333333333,51079.053,NA,290.275,-290.275,-290.681216137892,-7.24662707412162
220.0,620.215066666667,51308.837,NA,292.21,-292.21,-292.61967503694,-7.29495248340176
221.0,623.999633333333,51535.911,NA,292.074,-292.074,-292.484232576923,-7.29157592880086
222.0,627.792216666667,51763.466,NA,291.673,-291.673,-292.08341411076,-7.28158360116684
223.0,631.5643,51989.791,NA,291.615,-291.615,-292.026074720959,-7.2801541411554
224.0,635.32105,52215.196,NA,289.375,-289.375,-289.783651294168,-7.22425095438561
225.0,639.093766666667,52441.559,NA,292.143,-292.143,-292.556299112215,-7.29337253373022
