"Frame","Time (aligned)","Time [ s]","Intensity Ch3-T2","background","Intensity (bg-subst)","bleach-Corrected","Normalized"
1.0,-366.623716666667,0.0,NA,295.611,-295.611,-295.611,-11.826730793868
2.0,-362.589316666667,242.064,NA,298.265,-298.265,-298.270036605257,-11.9331128638905
3.0,-358.557483333333,483.974,NA,299.388,-299.388,-299.39804494167,-11.9782419386814
4.0,-354.566683333333,723.422,NA,297.533,-297.533,-297.547876352455,-11.904220857504
5.0,-350.433766666667,971.397,NA,300.165,-300.165,-300.184880474494,-12.0097214574603
6.0,-346.187166666667,1226.193,NA,299.427,-299.427,-299.451628837528,-11.9803857097562
7.0,-341.887483333333,1484.174,NA,298.089,-298.089,-298.118232502849,-11.9270395234107
8.0,-337.891116666667,1723.956,NA,300.417,-300.417,-300.45114969215,-12.0203742895806
9.0,-333.360466666667,1995.795,NA,297.575,-297.575,-297.613411009249,-11.906842751627
10.0,-328.705233333333,2275.109,NA,298.349,-298.349,-298.392047805229,-11.9379942573972
11.0,-324.134016666667,2549.382,NA,298.093,-298.093,-298.140485378848,-11.927929810896
12.0,-320.06005,2793.82,NA,298.424,-298.424,-298.475959905168,-11.9413513916592
13.0,-316.085233333333,3032.309,NA,298.346,-298.346,-298.402310157402,-11.9384048310107
14.0,-312.135133333333,3269.315,NA,298.232,-298.232,-298.292594860706,-11.9340153689203
15.0,-308.099483333333,3511.454,NA,300.867,-300.867,-300.932418904814,-12.039628787612
16.0,-304.078566666667,3752.709,NA,300.757,-300.757,-300.826627325157,-12.0353963046094
17.0,-300.095633333333,3991.685,NA,300.784,-300.784,-300.857812343596,-12.0366439470107
18.0,-296.081083333333,4232.558,NA,298.703,-298.703,-298.780398740992,-11.9535313042961
19.0,-292.107033333333,4471.001,NA,299.062,-299.062,-299.143541700788,-11.9680598368107
20.0,-288.078016666667,4712.742,NA,301.298,-301.298,-301.38417990945,-12.0577027286527
21.0,-284.140933333333,4948.967,321.824,298.644,23.18,23.1869361628099,0.92765713025617
22.0,-280.130116666667,5189.616,323.149,300.608,22.541,22.5480387816862,0.902096283970148
23.0,-276.08465,5432.344,323.893,299.528,24.365,24.3729219624993,0.97510575286587
24.0,-272.05265,5674.264,322.993,298.95,24.043,24.0511228480024,0.962231294551195
25.0,-268.07535,5912.902,319.221,296.499,22.722,22.7299617265038,0.909374611547894
26.0,-264.103616666667,6151.206,319.84,296.253,23.587,23.5955571523097,0.944005136384284
27.0,-260.116183333333,6390.452,319.759,296.192,23.567,23.5758383407281,0.943216231112996
28.0,-256.137533333333,6629.171,320.661,295.89,24.771,24.7805892884501,0.991415605061751
29.0,-252.12475,6869.938,319.645,295.409,24.236,24.2456714920114,0.970014747937591
30.0,-248.143666666667,7108.803,321.73,297.563,24.167,24.1769288760449,0.967264510588166
31.0,-244.1782,7346.731,321.486,297.413,24.073,24.0831705649706,0.963513451578981
32.0,-240.212183333333,7584.692,318.9,295.158,23.742,23.7523037725296,0.950276215877906
33.0,-235.999033333333,7837.481,318.047,295.155,22.8920000000001,22.9021949249485,0.916265274181463
34.0,-232.0268,8075.815,319.706,297.065,22.641,22.6513371850074,0.906229020598746
35.0,-228.074316666667,8312.964,317.492,294.835,22.657,22.6675956074138,0.906879483487248
36.0,-224.120983333333,8550.164,318.229,295.295,22.934,22.94497623849,0.917976858250607
37.0,-220.044216666667,8794.77,320.404,297.353,23.051,23.0622815413478,0.922669979405073
38.0,-215.984533333333,9038.351,318.876,295.101,23.775,23.7868899007896,0.95165992902841
39.0,-212.02195,9276.106,319.75,295.306,24.444,24.4564824829159,0.978448821222469
40.0,-208.059683333333,9513.842,322.112,297.962,24.15,24.1625841903595,0.966690611998722
41.0,-204.074016666667,9752.982,320.569,296.547,24.022,24.0347649878773,0.961576853383365
42.0,-200.12225,9990.088,323.57,298.946,24.624,24.6373355429043,0.985684345116135
43.0,-196.1563,10228.045,321.401,298.176,23.225,23.2378114859051,0.929692537430795
44.0,-192.169616666667,10467.246,320.523,296.488,24.035,24.0484971652543,0.96212624689393
45.0,-188.1772,10706.791,322.628,298.164,24.464,24.4779783159062,0.979308821120872
46.0,-184.2155,10944.493,319.764,296.114,23.65,23.6637427075398,0.946733086987397
47.0,-180.2575,11181.973,320.345,296.255,24.09,24.1042293943781,0.964355967947577
48.0,-176.252733333333,11422.259,319.579,295.939,23.64,23.654187616444,0.946350809297793
49.0,-172.147683333333,11668.562,318.94,295.754,23.186,23.2001322942531,0.928185077775372
50.0,-168.109883333333,11910.83,320.375,297.705,22.67,22.6840276153977,0.907536891144027
51.0,-163.956783333333,12160.016,317.911,294.781,23.13,23.144523847232,0.925960308965064
52.0,-159.65365,12418.204,319.392,296.857,22.535,22.5493539913501,0.902148902548728
53.0,-155.435716666667,12671.28,317.611,294.377,23.234,23.2490068755847,0.930140439775001
54.0,-151.350933333333,12916.367,318.115,294.715,23.4,23.4153208118946,0.936794286052727
55.0,-147.462483333333,13149.674,320.736,297.118,23.618,23.6336697873599,0.94552993713454
56.0,-143.494116666667,13387.776,320.132,296.948,23.184,23.1995819751944,0.928163060748408
57.0,-139.52255,13626.07,317.73,294.549,23.181,23.196777780436,0.92805087122738
58.0,-135.57865,13862.704,319.09,296.593,22.497,22.5125020259964,0.900674538355706
59.0,-131.6915,14095.933,317.875,294.541,23.334,23.3502734063333,0.934191885754998
60.0,-127.7769,14330.809,321.167,296.849,24.318,24.3351602027878,0.973594989848221
61.0,-123.889066666667,14564.079,321.547,297.499,24.048,24.0651657584866,0.962793119794027
62.0,-119.905833333333,14803.073,320.179,297.783,22.396,22.4121671050373,0.896660363986664
63.0,-116.003416666667,15037.218,318.849,296.258,22.591,22.6074879712646,0.904474712246013
64.0,-112.135583333333,15269.288,319.356,296.105,23.251,23.2681529682334,0.930906431850771
65.0,-108.155416666667,15508.098,318.878,296.021,22.857,22.8740404952335,0.915138878814262
66.0,-104.224133333333,15743.975,320.547,298.24,22.307,22.3238024386397,0.893125092561802
67.0,-100.326883333333,15977.81,320.525,297.974,22.551,22.5681581781139,0.902901215739552
68.0,-96.4642833333333,16209.566,320.106,297.734,22.372,22.3891906981673,0.895741129659585
69.0,-92.6498,16438.435,319.247,297.496,21.751,21.7678757594756,0.870883717323388
70.0,-88.7010666666667,16675.359,318.854,297.291,21.563,21.5798889845062,0.863362789548809
71.0,-84.7539833333333,16912.184,315.327,294.922,20.405,20.4211309057731,0.81700348677457
72.0,-80.9238833333333,17141.99,316.497,294.519,21.978,21.9955330809526,0.87999177437932
73.0,-77.0611833333333,17373.752,315.126,294.374,20.752,20.7687032320088,0.830909073284503
74.0,-73.2064166666666,17605.038,316.238,294.464,21.774,21.791679671354,0.871836058263428
75.0,-69.4110833333333,17832.758,316.773,294.501,22.272,22.2902397041193,0.891782323091523
76.0,-65.5456166666666,18064.686,317.054,294.869,22.1849999999999,22.2033218769041,0.888304936446025
77.0,-61.6825666666666,18296.469,320.212,297.923,22.289,22.3075602791586,0.892475280316338
78.0,-57.7928,18529.855,321.029,297.979,23.05,23.0693500313887,0.922952773782929
79.0,-53.8001333333333,18769.415,318.66,296.162,22.498,22.5170373648236,0.900855987054732
80.0,-49.9713166666666,18999.144,321.471,298.496,22.975,22.9945933101373,0.919961925616683
81.0,-46.1453,19228.705,321.75,298.111,23.639,23.6593146683688,0.94655593110612
82.0,-42.2528166666666,19462.254,319.552,295.909,23.643,23.6634716213538,0.946722241439215
83.0,-38.3197166666666,19698.24,319.374,295.368,24.006,24.0269401989153,0.961263801187837
84.0,-34.4595333333333,19929.851,321.12,297.19,23.93,23.9510261107168,0.95822664937486
85.0,-30.6541833333333,20158.172,318.636,294.977,23.659,23.6799369448421,0.947380981974345
86.0,-26.7890166666667,20390.082,317.2,294.62,22.58,22.6001228012336,0.904180048369473
87.0,-22.9919166666667,20617.908,317.414,294.579,22.835,22.8554909176072,0.914396751961993
88.0,-19.2016666666666,20845.323,317.824,294.724,23.1,23.1208697835895,0.925013963115686
89.0,-15.4156333333333,21072.485,320.294,296.789,23.505,23.5263777896123,0.941237425781114
90.0,-11.5581166666666,21303.936,317.94,294.565,23.375,23.3963994699666,0.936037285747459
91.0,-7.73106666666663,21533.559,319.378,295.012,24.366,24.3884511193005,0.975727039478831
92.0,-3.82396666666664,21767.985,320.718,295.581,25.137,25.1603090331089,1.00660733743029
93.0,0.0,21997.423,323.759,298.346,25.413,25.4367126259012,1.01766562309088
94.0,3.99473333333335,22237.107,316.507,296.333,20.174,20.1929402446227,0.807874091998661
95.0,7.77818333333338,22464.114,311.238,296.263,14.975,14.9891445221712,0.59968193705275
96.0,11.6673,22697.461,308.222,296.144,12.078,12.089476340486,0.483672739234212
97.0,15.5254333333334,22928.949,306.457,297.931,8.52600000000001,8.53414893305858,0.341432091451468
98.0,19.3317,23157.325,305.037,297.446,7.59099999999995,7.59829730472362,0.303990774073832
99.0,23.1274,23385.067,303.199,297.323,5.87600000000003,5.8816808763345,0.235312814272304
100.0,26.9795333333333,23616.195,303.778,296.912,6.86600000000004,6.8726752925958,0.274960270487901
101.0,30.7647,23843.305,299.893,294.739,5.154,5.15903857430743,0.206401522181227
102.0,34.5355666666667,24069.557,302.345,296.725,5.62,5.62552409271449,0.225064557878269
103.0,38.31315,24296.212,302.865,296.642,6.22300000000001,6.22914966289081,0.249214258392697
104.0,42.1516333333334,24526.521,301.908,296.6,5.30799999999999,5.31327321609572,0.212572103071379
105.0,45.9580666666667,24754.907,302.134,296.404,5.73000000000002,5.7357221532697,0.229473334264103
106.0,49.8389333333333,24987.759,300.257,295.014,5.243,5.2482627501644,0.209971180645104
107.0,53.7843833333334,25224.486,302.667,297.257,5.40999999999997,5.41545791478163,0.216660282884075
108.0,57.5859500000001,25452.58,300.166,295.414,4.75200000000001,4.75681805529322,0.190309584472039
109.0,61.3856,25680.559,300.53,295.859,4.67099999999999,4.67575927768018,0.187066605214469
110.0,65.4047666666667,25921.709,303.235,298.218,5.017,5.02213667097845,0.200924385146949
111.0,69.2098,26150.011,303.247,298.115,5.13200000000001,5.13727961265702,0.205530995097345
112.0,73.0108166666667,26378.072,302.714,297.804,4.91000000000003,4.91507512337027,0.196641093584941
113.0,76.8232666666667,26606.819,301.368,297.13,4.238,4.24240096903274,0.169728914622241
114.0,80.6706666666667,26837.663,299.466,294.903,4.56299999999999,4.56776028800597,0.18274580870525
115.0,84.4822666666667,27066.359,298.591,294.859,3.73200000000003,3.73591105147072,0.149465392950806
116.0,88.2760333333334,27293.985,301.627,296.922,4.70499999999998,4.70995284759668,0.188434612989158
117.0,92.1669166666667,27527.438,301.345,296.424,4.92100000000005,4.92620315782841,0.197086301198329
118.0,96.0745,27761.893,300.82,296.557,4.26299999999998,4.2675271268158,0.170734155645019
119.0,99.8985666666667,27991.337,299.708,294.453,5.25500000000005,5.26060466500837,0.210464952880713
120.0,103.786916666667,28224.638,299.2,294.236,4.964,4.96931685421569,0.198811183157055
121.0,107.647016666667,28456.244,300.069,294.633,5.43600000000004,5.44184689631043,0.217716046642749
122.0,111.534966666667,28689.521,303.63,297.449,6.18099999999998,6.18767582677813,0.24755498355281
123.0,115.341183333333,28917.894,300.384,295.296,5.08800000000002,5.09351787258079,0.203780186369142
124.0,119.246233333333,29152.197,300.38,295.974,4.40600000000001,4.41079761774906,0.176466085535899
125.0,123.085716666667,29382.566,299.691,295.704,3.98699999999997,3.99135875794693,0.1596852807642
126.0,126.987516666667,29616.674,303.435,297.778,5.65699999999998,5.66320893736706,0.22657224369752
127.0,130.982833333333,29856.393,301.408,297.379,4.029,4.03343938276616,0.161368831854568
128.0,134.865433333333,30089.349,300.84,296.889,3.95099999999996,3.95537025352621,0.158245461699761
129.0,138.676883333333,30318.036,298.315,294.384,3.93099999999998,3.93536472996543,0.157445085727474
130.0,142.53295,30549.4,NA,294.363,-294.363,-294.691075001761,-11.7899266651153
131.0,146.330683333333,30777.264,NA,296.023,-296.023,-296.354155665814,-11.8564627794759
132.0,150.11145,31004.11,NA,293.935,-293.935,-294.265032308048,-11.7728816558117
133.0,154.00165,31237.522,NA,293.71,-293.71,-294.040981924628,-11.7639179042295
134.0,158.022166666667,31478.753,NA,295.443,-295.443,-295.777134994623,-11.8333774810916
135.0,161.850683333333,31708.464,NA,295.545,-295.545,-295.880441861972,-11.8375105563469
136.0,165.657716666667,31936.886,NA,293.885,-293.885,-294.219733716476,-11.7710693611141
137.0,169.507016666667,32167.844,NA,294.251,-294.251,-294.587319247479,-11.7857756309041
138.0,173.317183333333,32396.454,NA,297.293,-297.293,-297.633968184419,-11.9076651979385
139.0,177.207466666667,32629.871,NA,294.929,-294.929,-295.268411089299,-11.8130245825977
140.0,181.078,32862.103,NA,297.079,-297.079,-297.422039525554,-11.899186409274
141.0,185.02575,33098.968,NA,294.421,-294.421,-294.762105905453,-11.7927684517065
142.0,188.953166666667,33334.613,NA,296.707,-296.707,-297.05189060994,-11.884377584235
143.0,192.940116666667,33573.83,NA,294.177,-294.177,-294.520068291681,-11.7830850715208
144.0,196.773233333333,33803.817,NA,293.695,-293.695,-294.038615027985,-11.7638232100219
145.0,200.6066,34033.819,NA,295.801,-295.801,-296.14818798142,-11.8482224759839
146.0,204.414483333333,34262.292,NA,295.797,-295.797,-296.145284576719,-11.8481063172964
147.0,208.243466666667,34492.031,NA,295.7,-295.7,-296.049263723996,-11.844264739088
148.0,212.12325,34724.818,NA,295.352,-295.352,-295.701937310973,-11.8303689910123
149.0,215.999633333333,34957.401,NA,295.339,-295.339,-295.689999148003,-11.8298913719804
150.0,219.825666666667,35186.963,NA,293.357,-293.357,-293.706706447465,-11.7505442947245
151.0,223.611833333333,35414.133,NA,293.652,-293.652,-294.003114932557,-11.762402931102
152.0,227.444516666667,35644.094,NA,294.011,-294.011,-294.363595312227,-11.7768249397784
153.0,231.311416666667,35876.108,NA,294.381,-294.381,-294.735084602415,-11.7916873901874
154.0,235.12005,36104.626,NA,294.567,-294.567,-294.922347760811,-11.7991793676915
155.0,238.9422,36333.955,NA,294.368,-294.368,-294.724139748838,-11.7912495112288
156.0,242.814116666667,36566.27,NA,294.459,-294.459,-294.816275626939,-11.7949356603462
157.0,246.78965,36804.802,NA,296.242,-296.242,-296.602464458207,-11.866397055404
158.0,250.748666666667,37042.343,NA,293.841,-293.841,-294.199553720225,-11.7702620048822
159.0,254.56035,37271.044,NA,296.023,-296.023,-296.38522821464,-11.8577059222211
160.0,258.380983333333,37500.282,NA,293.547,-293.547,-293.907195763678,-11.7585654210354
161.0,262.209666666667,37730.003,NA,293.399,-293.399,-293.760004872961,-11.7526766447726
162.0,266.080783333333,37962.27,NA,295.264,-295.264,-295.628290585212,-11.8274225512674
163.0,269.928533333333,38193.135,NA,292.965,-292.965,-293.327431484107,-11.7353703570547
164.0,273.785033333333,38424.525,NA,292.898,-292.898,-293.261319920186,-11.7327253821761
165.0,277.5974,38653.267,NA,295.226,-295.226,-295.593180917866,-11.8260178924963
166.0,281.387133333333,38880.651,NA,293.56,-293.56,-293.926070995259,-11.7593205765695
167.0,285.197666666667,39109.283,NA,296.002,-296.002,-296.37208070114,-11.8571799197963
168.0,288.9659,39335.377,NA,294.304,-294.304,-294.672911238603,-11.7891999738316
169.0,292.748633333333,39562.341,NA,294.747,-294.747,-295.117416036869,-11.8069836103866
170.0,296.521,39788.683,NA,294.848,-294.848,-295.219487441108,-11.8110672575435
171.0,300.367683333333,40019.484,NA,296.535,-296.535,-296.90955752266,-11.8786831577545
172.0,304.25865,40252.942,NA,296.591,-296.591,-296.966567798255,-11.8809640105711
173.0,308.2098,40490.011,NA,296.164,-296.164,-296.539960150442,-11.8638963987255
174.0,312.071383333333,40721.706,NA,293.753,-293.753,-294.126819991465,-11.7673520920924
175.0,315.86395,40949.26,NA,293.649,-293.649,-294.023602821049,-11.7632226054096
176.0,319.68685,41178.634,NA,295.584,-295.584,-295.961987574627,-11.8407730167796
177.0,323.557833333333,41410.893,NA,295.255,-295.255,-295.633477323469,-11.8276300609915
178.0,327.36535,41639.344,NA,295.445,-295.445,-295.824627180486,-11.8352775365598
179.0,331.211866666667,41870.135,NA,293.406,-293.406,-293.783902600166,-11.7536327390527
180.0,335.101766666667,42103.529,NA,295.608,-295.608,-295.989636248962,-11.8418791780123
181.0,338.905366666667,42331.745,NA,293.495,-293.495,-293.874794898102,-11.7572691353266
182.0,342.73525,42561.538,NA,294.264,-294.264,-294.645674459708,-11.7881102916084
183.0,346.5509,42790.477,NA,294.505,-294.505,-294.887867821426,-11.7977999029188
184.0,350.37515,43019.932,NA,295.343,-295.343,-295.727836191795,-11.8314051469447
185.0,354.186666666667,43248.623,NA,295.622,-295.622,-296.008075220601,-11.842616879768
186.0,357.99925,43477.378,NA,297.358,-297.358,-297.747218782078,-11.9121960994637
187.0,361.805266666667,43705.739,NA,297.152,-297.152,-297.541820748312,-11.9039785864113
188.0,365.7879,43944.697,NA,296.532,-296.532,-296.921873078229,-11.8791758754149
189.0,369.655416666667,44176.748,NA,296.147,-296.147,-296.53722740789,-11.8637870678464
190.0,373.452183333333,44404.554,NA,296.008,-296.008,-296.398900387971,-11.8582529151048
191.0,377.261833333333,44633.133,NA,293.74,-293.74,-294.128751017454,-11.7674293480962
192.0,381.068883333333,44861.556,NA,296.357,-296.357,-296.750063854848,-11.8723021750694
193.0,384.867233333333,45089.457,NA,293.837,-293.837,-294.227559896877,-11.771382468978
194.0,388.692516666667,45318.974,NA,295.798,-295.798,-296.192006621045,-11.849975561135
195.0,392.513033333333,45548.205,NA,293.503,-293.503,-293.894779693343,-11.7580686820055
196.0,396.365883333333,45779.376,NA,293.223,-293.223,-293.615231586812,-11.7468845914274
197.0,400.160066666667,46007.027,NA,294.083,-294.083,-294.47720648455,-11.7813702670843
198.0,404.08035,46242.244,NA,296.882,-296.882,-297.28078725535,-11.8935352238522
199.0,407.95,46474.423,NA,294.797,-294.797,-295.193806117791,-11.8100398055972
200.0,411.807483333333,46705.872,NA,294.9,-294.9,-295.297761177683,-11.8141988135773
201.0,415.645766666667,46936.169,NA,296.784,-296.784,-297.185120570967,-11.889707815122
202.0,419.484416666667,47166.488,NA,295.836,-295.836,-296.236651614976,-11.8517617068621
203.0,423.397483333333,47401.272,NA,295.659,-295.659,-296.060220469263,-11.8447030938064
204.0,427.354283333333,47638.68,NA,293.29,-293.29,-293.688804539794,-11.7498280796894
205.0,431.15895,47866.96,NA,293.288,-293.288,-293.687597561822,-11.7497797912172
206.0,434.982633333333,48096.381,NA,292.992,-292.992,-293.391986111324,-11.7379530424
207.0,438.78755,48324.676,NA,292.958,-292.958,-293.358728395586,-11.7366224760447
208.0,442.550266666667,48550.439,NA,294.682,-294.682,-295.085876922554,-11.8057218014063
209.0,446.303733333333,48775.647,NA,292.395,-292.395,-292.796523702546,-11.7141299316007
210.0,450.036566666667,48999.617,NA,292.619,-292.619,-293.021610222559,-11.723135136676
211.0,453.937133333333,49233.651,NA,292.84,-292.84,-293.243690928309,-11.7320200858877
212.0,457.75305,49462.606,NA,293.393,-293.393,-293.798228527484,-11.7542058871621
213.0,461.523916666667,49688.858,NA,296.047,-296.047,-296.456673643162,-11.8605642930178
214.0,465.321483333333,49916.712,NA,294.22,-294.22,-294.627917313123,-11.7873998681386
215.0,469.128383333333,50145.126,NA,294.469,-294.469,-294.878032366095,-11.7974064084872
216.0,472.983083333333,50376.408,NA,294.46,-294.46,-294.869786992998,-11.797076529667
217.0,476.88005,50610.226,NA,294.485,-294.485,-294.895586339114,-11.7981087034399
218.0,480.67185,50837.734,NA,293.64,-293.64,-294.050167964931,-11.7642854170275
219.0,484.693833333333,51079.053,NA,293.593,-293.593,-294.003859407707,-11.7624327158772
220.0,488.523566666667,51308.837,NA,295.725,-295.725,-296.139603026245,-11.8478790112491
221.0,492.308133333333,51535.911,NA,295.565,-295.565,-295.980135861453,-11.8414990888901
222.0,496.100716666667,51763.466,NA,294.856,-294.856,-295.270892921327,-11.8131238751115
223.0,499.8728,51989.791,NA,294.905,-294.905,-295.320712465354,-11.8151170429418
224.0,503.62955,52215.196,NA,292.921,-292.921,-293.334658905361,-11.7356595099128
225.0,507.402266666667,52441.559,NA,295.658,-295.658,-296.076271835777,-11.8453452728546
