"Frame","Time (aligned)","Time [ s]","Intensity Ch3-T2","background","Intensity (bg-subst)","bleach-Corrected","Normalized"
1.0,-12.200000000000001,0.0,248.514,240.59,7.924000000000007,7.924000000000007,0.9875516914301421
2.0,-9.733333333333334,148.0,244.638,236.741,7.896999999999991,7.923226919148518,0.9874553439664243
3.0,-7.233333333333333,298.0,243.452,235.474,7.978000000000009,8.030691876581617,1.0008484788077323
4.0,-4.733333333333333,448.0,242.507,234.338,8.169000000000011,8.24947118426531,1.0281144903363728
5.0,-0.3333333333333333,712.0,241.89,234.001,7.888999999999982,7.992028926192187,0.9960299954593275
6.0,0.39999999999999997,756.0,257.892,250.031,7.86099999999999,7.988599409336416,0.9956025818838977
7.0,2.9,906.0,253.274,245.691,7.582999999999998,7.7298634513615285,0.9633568558702811
8.0,5.4,1056.0,250.94,243.101,7.838999999999999,8.015115620951676,0.9989072423623138
9.0,7.8999999999999995,1206.0,249.006,241.139,7.86699999999999,8.067841527040663,1.0054783627232888
10.0,10.399999999999999,1356.0,247.5,239.433,8.067000000000007,8.29736784617157,1.0340837520071684
11.0,12.899999999999999,1506.0,244.913,237.66,7.253000000000014,7.481820991258568,0.9324438383259634
12.0,15.399999999999999,1656.0,244.003,236.29,7.712999999999994,7.979135811480502,0.9944231533036828
13.0,17.900000000000002,1806.0,242.758,234.848,7.909999999999997,8.206041518910139,1.0227019411844616
14.0,20.400000000000002,1956.0,241.117,233.454,7.6629999999999825,7.971918125356734,0.99352362804627
15.0,22.900000000000002,2106.0,240.289,232.36,7.928999999999974,8.271257485279111,1.030829671862898
16.0,25.400000000000002,2256.0,238.876,231.33,7.545999999999992,7.892991680129702,0.9836871888132408
17.0,27.900000000000002,2406.0,237.532,230.093,7.439000000000021,7.801785143071119,0.9723203071951578
18.0,30.400000000000002,2556.0,236.783,229.183,7.599999999999994,7.9915444753232086,0.9959696193519227
19.0,32.9,2706.0,235.789,228.433,7.3559999999999945,7.75496643822198,0.966485389077498
20.0,35.4,2856.0,234.925,227.432,7.493000000000023,7.919515842351566,0.9869928401592742
21.0,37.9,3006.0,234.506,226.926,7.5800000000000125,8.03157417776268,1.000958438174682
22.0,40.4,3156.0,233.923,226.119,7.804000000000002,8.289367966137332,1.033086743544391
23.0,42.9,3306.0,233.265,225.46,7.804999999999978,8.310633229684795,1.035736989251736
24.0,45.4,3456.0,232.677,225.06,7.61699999999999,8.129930235164757,1.0132163496903082
25.0,47.9,3606.0,231.895,224.444,7.451000000000022,7.9715710795989,0.9934803764529898
26.0,50.4,3756.0,232.035,224.084,7.950999999999993,8.526340784608132,1.062620174602418
27.0,52.9,3906.0,231.528,223.736,7.792000000000002,8.375037522956141,1.0437635627948307
28.0,55.4,4056.0,231.353,223.784,7.569000000000017,8.153775470801547,1.0161881319701747
29.0,57.9,4206.0,231.57,223.803,7.766999999999996,8.385746741775982,1.0450982305332746
30.0,60.4,4356.0,232.659,224.528,8.131,8.798053242197273,1.096483134859207
31.0,62.9,4506.0,232.837,224.444,8.393,9.101233397398326,1.134267849028421
32.0,65.4,4656.0,230.855,222.748,8.107,8.809880986849047,1.0979572021530817
33.0,67.9,4806.0,230.422,222.358,8.063999999999993,8.781604634341376,1.0944331789644868
34.0,70.4,4956.0,230.369,222.179,8.189999999999998,8.937326483232988,1.1138404701388356
35.0,72.9,5106.0,229.959,222.531,7.427999999999997,8.122375357552864,1.0122748009568183
36.0,75.4,5256.0,229.985,222.633,7.352000000000004,8.055479302675497,1.0039376843308534
37.0,77.9,5406.0,230.168,222.771,7.39700000000002,8.120891876843523,1.0120899178316651
38.0,80.4,5556.0,230.613,223.364,7.248999999999995,7.973998128456651,0.9937828545202103
39.0,82.9,5706.0,230.303,223.486,6.817000000000007,7.513272544527322,0.9363635802023723
40.0,85.4,5856.0,230.266,224.133,6.132999999999981,6.772277281628646,0.8440148768685372
41.0,87.9,6006.0,231.927,225.177,6.75,7.467577713623464,0.9306687281644219
42.0,90.4,6156.0,231.862,225.452,6.409999999999997,7.104552144467227,0.8854256041295112
43.0,92.9,6306.0,231.559,225.109,6.449999999999989,7.161924982174427,0.892575861943733
44.0,95.4,6456.0,231.189,224.487,6.701999999999998,7.455121382542401,0.9291163214470927
45.0,97.9,6606.0,230.973,223.798,7.175000000000011,7.995423913642651,0.9964531057065623
46.0,100.4,6756.0,229.862,222.93,6.931999999999988,7.738141588130901,0.964388542893058
47.0,102.9,6906.0,229.772,222.406,7.3659999999999854,8.236785871831636,1.026533546147807
48.0,105.4,7056.0,229.136,221.844,7.292000000000002,8.167897102947556,1.017948081706614
49.0,107.9,7206.0,228.843,221.873,6.969999999999999,7.820304816114011,0.9746283756502615
50.0,110.4,7356.0,229.679,222.474,7.2050000000000125,8.09733551254166,1.0091541369873633
51.0,112.9,7506.0,229.486,222.398,7.087999999999994,7.978830088141517,0.9943850516377912
52.0,115.4,7656.0,229.802,222.703,7.0989999999999895,8.004059758036213,0.9975293730889184
53.0,117.9,7806.0,227.997,221.122,6.875,7.763792734209791,0.9675853920471884
54.0,120.4,7956.0,226.035,219.176,6.859000000000009,7.757838349954517,0.9668433094824836
55.0,122.9,8106.0,225.745,218.867,6.878000000000014,7.791329245790077,0.9710172103948912
56.0,125.4,8256.0,226.236,219.156,7.079999999999984,8.03235758242881,1.0010560722740147
57.0,127.89999999999999,8406.0,226.45,219.497,6.9529999999999745,7.900116226848012,0.9845751062996543
58.0,130.39999999999998,8556.0,226.545,219.787,6.757999999999981,7.689925843238772,0.9583795145712777
59.0,132.89999999999998,8706.0,226.308,219.443,6.864999999999981,7.823095077396342,0.974976120128921
60.0,135.39999999999998,8856.0,225.852,218.966,6.885999999999996,7.858338396788724,0.979368421955973
61.0,137.89999999999998,9006.0,226.312,219.341,6.971000000000004,7.966656974172232,0.9928679416819182
62.0,140.39999999999998,9156.0,227.118,219.942,7.175999999999988,8.212447807102533,1.0235003435999321
63.0,142.89999999999998,9306.0,225.965,219.594,6.371000000000009,7.3012787226180755,0.9099432296976756
64.0,145.39999999999998,9456.0,225.372,218.645,6.727000000000004,7.719799015911391,0.9621025461463951
65.0,147.89999999999998,9606.0,224.632,217.69,6.942000000000007,7.977276951333025,0.9941914874174166
66.0,150.39999999999998,9756.0,224.341,217.84,6.501000000000005,7.480456615636675,0.9322737990209223
67.0,152.89999999999998,9906.0,224.528,217.332,7.195999999999998,8.291049348644016,1.0332962907602434
68.0,155.39999999999998,10056.0,224.333,217.574,6.758999999999986,7.797651971559881,0.9718051985988814
69.0,157.89999999999998,10206.0,224.017,216.942,7.074999999999989,8.17266474189874,1.0185422626645104
70.0,160.39999999999998,10356.0,223.977,216.767,7.210000000000008,8.339139763813348,1.0392896994985135
71.0,162.89999999999998,10506.0,223.873,216.965,6.907999999999987,7.9998178953110575,0.9970007185319975
72.0,165.39999999999998,10656.0,223.66,217.04,6.6200000000000045,7.675747944995547,0.956612552507797
73.0,167.89999999999998,10806.0,223.287,216.325,6.9620000000000175,8.082113756494747,1.0072570810900052
74.0,170.39999999999998,10956.0,222.804,215.718,7.086000000000013,8.235950217799244,1.0264294003182843
75.0,172.89999999999998,11106.0,222.034,215.175,6.8589999999999804,7.981573382868726,0.9947269427720602
76.0,175.39999999999998,11256.0,221.451,214.472,6.978999999999985,8.130732698095985,1.013316358981707
77.0,177.89999999999998,11406.0,221.278,214.319,6.959000000000003,8.116818728895018,1.0115822898475675
78.0,180.39999999999998,11556.0,220.793,214.112,6.681000000000012,7.80147763170163,0.9722819826907316
79.0,182.89999999999998,11706.0,220.445,213.862,6.582999999999998,7.6957261757325295,0.9591023979843352
80.0,185.39999999999998,11856.0,220.257,213.551,6.706000000000017,7.848266373215522,0.9781131665400415
81.0,187.89999999999998,12006.0,220.518,213.485,7.032999999999987,8.240041947561382,1.02693934411529
82.0,190.39999999999998,12156.0,220.406,213.239,7.167000000000002,8.406188400581643,1.047645832089202
83.0,192.89999999999998,12306.0,219.935,213.095,6.840000000000003,8.031286510663504,1.0009225868205225
84.0,195.39999999999998,12456.0,220.615,213.519,7.096000000000004,8.34073689748457,1.039488746956673
85.0,197.89999999999998,12606.0,221.157,214.458,6.699000000000012,7.88237667469133,0.9823642626931999
86.0,200.39999999999998,12756.0,221.519,214.749,6.77000000000001,7.974196982215764,0.9938076372519316
87.0,202.89999999999998,12906.0,221.621,214.64,6.981000000000023,8.231174365188151,1.0258341957089825
88.0,205.39999999999998,13056.0,221.018,214.036,6.981999999999999,8.240712527780936,1.027022917137761
89.0,207.89999999999998,13206.0,219.899,213.206,6.693000000000012,7.907541458325846,0.9855004975042473
90.0,210.39999999999998,13356.0,219.474,212.049,7.424999999999983,8.78107954600566,1.094367738293855
91.0,212.89999999999998,13506.0,218.337,211.6,6.736999999999995,7.97524364389007,0.993938080526391
92.0,215.39999999999998,13656.0,217.48,210.504,6.975999999999999,8.266184409499006,1.0301974249462655
93.0,217.89999999999998,13806.0,216.79,210.127,6.6629999999999825,7.90287240259603,0.9849186027688407
94.0,220.39999999999998,13956.0,216.713,209.804,6.908999999999992,8.20242574242354,1.0222513144574077
95.0,222.89999999999998,14106.0,216.668,209.487,7.181000000000012,8.533348888701633,1.063493580085918
96.0,225.39999999999998,14256.0,215.258,208.751,6.507000000000005,7.739598443607289,0.9645701077706293
97.0,227.89999999999998,14406.0,215.12,208.526,6.593999999999994,7.8502823565921,0.9783644143685921
98.0,230.39999999999998,14556.0,214.739,207.956,6.7830000000000155,8.082628372991808,1.0073212166770962
99.0,232.89999999999998,14706.0,214.604,208.021,6.583000000000027,7.851360756115421,0.9784988130653731
100.0,235.39999999999998,14856.0,215.12,208.039,7.081000000000017,8.452824605222965,1.053458005584333
101.0,237.89999999999998,15006.0,215.159,208.15,7.008999999999986,8.374241587471813,1.0436643670056058
102.0,240.39999999999998,15156.0,215.268,208.365,6.902999999999992,8.254780185420428,1.0287761401433568
103.0,242.89999999999998,15306.0,215.203,208.424,6.778999999999996,8.113488257965741,1.0111672201606081
104.0,245.39999999999998,15456.0,215.315,208.514,6.800999999999988,8.146766849233412,1.0153146619948838
105.0,247.89999999999998,15606.0,215.73,208.559,7.170999999999992,8.597239716840425,1.0714561615340927
106.0,250.39999999999998,15756.0,215.986,209.022,6.963999999999999,8.35605352641861,1.0413976266652567
107.0,252.89999999999998,15906.0,216.096,209.35,6.746000000000009,8.101180869503288,1.0096333758530383
108.0,255.39999999999998,16056.0,216.07,209.165,6.905000000000001,8.298922060012472,1.0342774504558594
109.0,257.90000000000003,16206.0,215.426,208.442,6.9839999999999804,8.400686564991595,1.0469601497263898
110.0,260.40000000000003,16356.0,215.024,207.899,7.125,8.577180850669643,1.068956266630619
111.0,262.90000000000003,16506.0,214.118,207.431,6.686999999999983,8.056322330290898,1.0040427491147392
112.0,265.40000000000003,16656.0,214.164,207.332,6.831999999999994,8.237509081222763,1.0266236782348168
113.0,267.90000000000003,16806.0,213.917,206.979,6.937999999999988,8.371854451911554,1.0433668632499007
114.0,270.40000000000003,16956.0,213.685,206.527,7.1580000000000155,8.644009590954346,1.0772849939784614
115.0,272.90000000000003,17106.0,212.741,206.115,6.626000000000005,8.007704817909392,0.9979836493437294
116.0,275.40000000000003,17256.0,212.847,206.179,6.668000000000006,8.064589335458923,1.0050730488291189
117.0,277.90000000000003,17406.0,213.068,206.076,6.992000000000019,8.462820863363193,1.0547038185114348
118.0,280.40000000000003,17556.0,213.057,206.076,6.9809999999999945,8.45581563132792,1.053830770966597
119.0,282.90000000000003,17706.0,212.827,206.351,6.475999999999999,7.84993348779261,0.9783209355734099
120.0,285.40000000000003,17856.0,213.723,206.453,7.27000000000001,8.818850947276427,1.0990751097240206
121.0,287.90000000000003,18006.0,213.631,206.553,7.078000000000003,8.592189406932434,1.070826751880902
122.0,290.40000000000003,18156.0,213.737,207.041,6.695999999999998,8.13432856275582,1.0137645041390737
123.0,292.90000000000003,18306.0,213.894,206.917,6.977000000000004,8.48174693653601,1.057062535772155
124.0,295.40000000000003,18456.0,213.819,206.977,6.8419999999999845,8.323526564930743,1.0373438588921087
125.0,297.90000000000003,18606.0,213.136,206.322,6.813999999999993,8.295290149857111,1.0338248130231171
126.0,300.40000000000003,18756.0,212.768,206.033,6.735000000000014,8.204831973470837,1.0225511980440722
127.0,302.90000000000003,18906.0,212.627,205.715,6.912000000000006,8.426282115833411,1.0501500701613875
128.0,305.40000000000003,19056.0,212.438,205.431,7.006999999999977,8.54795326840059,1.0653136936490166
129.0,307.90000000000003,19206.0,212.147,205.004,7.143000000000001,8.71979057579617,1.0867294210050622
130.0,310.40000000000003,19356.0,211.246,204.715,6.531000000000006,7.9780755126409755,0.9942910104575955
131.0,312.90000000000003,19506.0,211.082,204.644,6.437999999999988,7.869736680630612,0.9807889664394985
132.0,315.40000000000003,19656.0,210.58,204.469,6.111000000000018,7.474980109760837,0.9315912734478771
133.0,317.90000000000003,19806.0,210.759,204.247,6.511999999999972,7.970736998309539,0.9933764266311701
134.0,320.40000000000003,19956.0,210.544,203.603,6.9410000000000025,8.501397138268386,1.0595114996739408
135.0,322.90000000000003,20106.0,210.152,203.388,6.763999999999982,8.289988250193222,1.0331640482602618
136.0,325.40000000000003,20256.0,210.108,203.255,6.853000000000009,8.40448347064692,1.0474333502062128
137.0,327.90000000000003,20406.0,209.932,203.022,6.909999999999997,8.479813197077984,1.05682153783266
138.0,330.40000000000003,20556.0,210.792,203.247,7.5449999999999875,9.264957375628708,1.1546724289917079
139.0,332.90000000000003,20706.0,209.897,203.451,6.445999999999998,7.920424630285508,0.9871061005153211
140.0,335.40000000000003,20856.0,210.131,203.26,6.871000000000009,8.447927388186937,1.0528476755783727
141.0,337.90000000000003,21006.0,210.463,203.404,7.0589999999999975,8.684475173000479,1.082328135572904
142.0,340.40000000000003,21156.0,211.784,204.362,7.421999999999997,9.136706348637285,1.1386887693964236
143.0,342.90000000000003,21306.0,211.361,204.571,6.789999999999992,8.363826132181648,1.042366310406815
144.0,345.40000000000003,21456.0,211.469,204.492,6.977000000000004,8.59941024417172,1.0717266698553087
145.0,347.90000000000003,21606.0,210.333,203.945,6.388000000000005,7.87821498215143,0.9818455995802531
146.0,350.40000000000003,21756.0,210.574,203.726,6.848000000000013,8.450607536874138,1.053181696952594
147.0,352.90000000000003,21906.0,210.03,203.055,6.974999999999994,8.612474948684827,1.0733548968921531
148.0,355.40000000000003,22056.0,210.239,203.371,6.867999999999995,8.485393264280846,1.057516970039182
149.0,357.90000000000003,22206.0,209.978,203.123,6.855000000000018,8.474331674020616,1.0561383869786825
150.0,360.40000000000003,22356.0,208.788,202.004,6.78400000000002,8.391479929080926,1.04581274578066
151.0,362.90000000000003,22506.0,208.094,201.256,6.837999999999994,8.46320736652109,1.0547519875986793
152.0,365.40000000000003,22656.0,207.851,200.918,6.932999999999993,8.585759573027108,1.0700254150120454
153.0,367.90000000000003,22806.0,207.343,200.758,6.5849999999999795,8.159497994047637,1.0169013181780147
154.0,370.40000000000003,22956.0,207.42,200.795,6.625,8.21376382585733,1.0236643562888836
155.0,372.90000000000003,23106.0,207.191,200.709,6.481999999999999,8.041046639067828,1.0021389713881987
156.0,375.40000000000003,23256.0,207.573,201.0,6.5730000000000075,8.15855034424886,1.0167832145483247
157.0,377.90000000000003,23406.0,208.569,201.435,7.133999999999986,8.859860705912732,1.1041860709186728
158.0,380.40000000000003,23556.0,208.559,201.386,7.173000000000002,8.913282720781817,1.110843945873692
159.0,382.90000000000003,23706.0,208.317,201.484,6.832999999999998,8.495520636806626,1.0587791234803199
160.0,385.40000000000003,23856.0,208.376,201.356,7.02000000000001,8.732852162267042,1.0883572594467672
161.0,387.90000000000003,24006.0,207.639,201.0,6.63900000000001,8.263438466116732,1.029855203715607
162.0,390.40000000000003,24156.0,207.299,200.674,6.625,8.250530691651656,1.0282465345452911
163.0,392.90000000000003,24306.0,206.954,200.639,6.314999999999998,7.868754453592355,0.9806665535201398
164.0,395.40000000000003,24456.0,207.77,201.235,6.534999999999997,8.14729899649679,1.015380982405035
165.0,397.90000000000003,24606.0,208.56,201.778,6.782000000000011,8.459799758415105,1.0543273044653128
166.0,400.40000000000003,24756.0,208.339,201.716,6.6229999999999905,8.26589952512679,1.0301619203975976
167.0,402.90000000000003,24906.0,207.688,201.416,6.271999999999991,7.83201194925607,0.9760874113817403
168.0,405.40000000000003,25056.0,206.843,200.838,6.0049999999999955,7.502588137924791,0.9350320047591294
169.0,407.90000000000003,25206.0,206.944,200.663,6.2809999999999775,7.851571495441965,0.9785250770707213
170.0,410.40000000000003,25356.0,206.297,200.265,6.032000000000011,7.544279182579166,0.9402278732177258
171.0,412.90000000000003,25506.0,206.638,199.954,6.6839999999999975,8.364123240247787,1.0424033383691136
172.0,415.40000000000003,25656.0,206.09,199.518,6.572000000000003,8.228261048719785,1.025471115117614
173.0,417.90000000000003,25806.0,206.055,199.483,6.572000000000003,8.23253465803327,1.026003726186019
174.0,420.40000000000003,25956.0,205.686,199.337,6.349000000000018,7.957302110014069,0.99170206435702
175.0,422.90000000000003,26106.0,205.474,199.146,6.328000000000003,7.935065524170674,0.9889307647657433
176.0,425.40000000000003,26256.0,205.895,199.098,6.796999999999997,8.527542302191735,1.0627699172477951
177.0,427.90000000000003,26406.0,205.113,199.136,5.977000000000004,7.502594793584093,0.9350328342401493
178.0,430.40000000000003,26556.0,205.522,198.847,6.674999999999983,8.38301423919484,1.044757684401795
179.0,432.90000000000003,26706.0,205.056,198.595,6.461000000000013,8.118363000089916,1.0117747491649007
180.0,435.40000000000003,26856.0,204.658,198.488,6.1699999999999875,7.75662491857936,0.9666920820459652
181.0,437.90000000000003,27006.0,204.712,198.46,6.251999999999981,7.863658156064567,0.9800314125252384
182.0,440.40000000000003,27156.0,205.054,198.692,6.361999999999995,8.006016762693687,0.9977732705219856
183.0,442.90000000000003,27306.0,205.692,198.698,6.994,8.805718398089661,1.0974384273461584
184.0,445.40000000000003,27456.0,205.324,198.682,6.642000000000024,8.36668748936934,1.042722915420759
185.0,447.90000000000003,27606.0,205.334,198.805,6.528999999999996,8.228412384447982,1.0254899757756595
186.0,450.40000000000003,27756.0,205.372,198.712,6.660000000000025,8.397645207759103,1.0465811116800507
187.0,452.90000000000003,27906.0,205.356,198.315,7.040999999999997,8.882409130626982,1.1069962343418989
188.0,455.40000000000003,28056.0,204.378,197.86,6.517999999999972,8.22665262496723,1.0252706606000253
189.0,457.90000000000003,28206.0,204.508,198.084,6.424000000000007,8.111963033018688,1.0109771345376557
190.0,460.40000000000003,28356.0,204.127,197.785,6.342000000000013,8.012306662169932,0.9985571676530673
191.0,462.90000000000003,28506.0,203.658,197.385,6.272999999999996,7.928970265988533,0.9881711253756024
192.0,465.40000000000003,28656.0,203.543,197.229,6.313999999999993,7.984643876097161,0.995109611977167
193.0,467.90000000000003,28806.0,203.556,197.269,6.287000000000006,7.9543228516797315,0.9913307655676102
194.0,470.40000000000003,28956.0,203.522,197.172,6.349999999999994,8.037881180012663,1.001744466788996
195.0,472.90000000000003,29106.0,203.806,196.908,6.898000000000025,8.735715559953867,1.0887141187638876
196.0,475.40000000000003,29256.0,203.713,196.883,6.829999999999984,8.653718911930245,1.0784950465216703
197.0,477.90000000000003,29406.0,203.27,196.967,6.302999999999997,7.989793126033836,0.9957513523210034
198.0,480.40000000000003,29556.0,203.69,197.166,6.524000000000001,8.27385107320501,1.031152905348902
199.0,482.90000000000003,29706.0,203.792,197.761,6.031000000000006,7.652229387649796,0.9536814834660513
200.0,485.40000000000003,29856.0,204.153,197.798,6.35499999999999,8.067119831654159,1.0053884193235363
