"Frame","Time (aligned)","Time [ s]","Intensity Ch3-T2","background","Intensity (bg-subst)","bleach-Corrected","Normalized"
1.0,-12.200000000000001,0.0,243.163,237.777,5.386000000000024,5.386000000000024,0.997364311508163
2.0,-9.733333333333334,148.0,238.149,232.715,5.4339999999999975,5.452046989825639,1.0095947070771587
3.0,-7.233333333333333,298.0,235.771,230.113,5.657999999999987,5.6953690947228175,1.05465240919849
4.0,-4.733333333333333,448.0,233.197,227.769,5.427999999999997,5.481470141778923,1.015043203491991
5.0,-0.3333333333333333,712.0,232.623,227.701,4.921999999999997,4.986280437915834,0.9233453687241969
6.0,0.39999999999999997,756.0,253.936,248.176,5.760000000000019,5.853496068919727,1.0839339169502107
7.0,2.9,906.0,248.939,243.333,5.6059999999999945,5.714573982372768,1.058208716207139
8.0,5.4,1056.0,246.312,241.096,5.216000000000008,5.333185748039803,0.9875843170699667
9.0,7.8999999999999995,1206.0,244.668,239.449,5.218999999999994,5.352239091092566,0.9911125614769011
10.0,10.399999999999999,1356.0,243.473,237.63,5.843000000000018,6.009857484217253,1.1128884834772548
11.0,12.899999999999999,1506.0,241.711,236.095,5.616000000000014,5.793176159783281,1.0727640460541643
12.0,15.399999999999999,1656.0,240.639,234.612,6.027000000000015,6.234960655489841,1.154572454779629
13.0,17.900000000000002,1806.0,239.047,233.592,5.454999999999984,5.659160111966459,1.0479473317463537
14.0,20.400000000000002,1956.0,237.396,231.823,5.572999999999979,5.79766406271865,1.0735951032805382
15.0,22.900000000000002,2106.0,236.307,230.138,6.168999999999983,6.435286596883196,1.1916682484326195
16.0,25.400000000000002,2256.0,234.368,228.792,5.575999999999993,5.832404135754468,1.080028172167488
17.0,27.900000000000002,2406.0,233.197,227.665,5.532000000000011,5.801784569360047,1.0743581270958857
18.0,30.400000000000002,2556.0,231.924,226.571,5.353000000000009,5.628781260053321,1.0423218615044756
19.0,32.9,2706.0,231.352,225.078,6.274000000000001,6.6142821415721516,1.2248141392962897
20.0,35.4,2856.0,230.37,224.848,5.521999999999991,5.836322765443099,1.0807538129772647
21.0,37.9,3006.0,230.366,224.398,5.968000000000018,6.32354019695089,1.1709753648024672
22.0,40.4,3156.0,229.689,224.096,5.592999999999989,5.940855335034085,1.1001108598209879
23.0,42.9,3306.0,228.857,223.161,5.695999999999998,6.0650053653151454,1.1231006127870085
24.0,45.4,3456.0,228.795,222.705,6.089999999999975,6.500101763444037,1.2036705384386053
25.0,47.9,3606.0,227.32,221.657,5.6629999999999825,6.0586507883194605,1.1219238901152246
26.0,50.4,3756.0,226.21,220.545,5.6650000000000205,6.074923977462619,1.1249373134508742
27.0,52.9,3906.0,224.781,219.145,5.635999999999996,6.057714512240858,1.121750513147806
28.0,55.4,4056.0,223.111,217.661,5.449999999999989,5.871063061945863,1.0871869232451943
29.0,57.9,4206.0,222.082,216.558,5.524000000000001,5.9640614138754415,1.104408096145981
30.0,60.4,4356.0,221.305,215.57,5.735000000000014,6.205489526995632,1.1491150742040637
31.0,62.9,4506.0,221.616,215.53,6.086000000000013,6.599559925719805,1.2220879208266555
32.0,65.4,4656.0,220.887,215.24,5.646999999999991,6.136597746729554,1.1363578883530334
33.0,67.9,4806.0,222.33,216.609,5.721000000000004,6.230104180687883,1.1536731464530023
34.0,70.4,4956.0,223.277,217.361,5.915999999999997,6.455827042100897,1.1954718702303588
35.0,72.9,5106.0,222.854,217.263,5.591000000000008,6.113651134097759,1.132108699249997
36.0,75.4,5256.0,222.78,216.854,5.925999999999988,6.493031875361108,1.2023613564742033
37.0,77.9,5406.0,222.3,216.304,5.996000000000009,6.582785952893566,1.218981763778921
38.0,80.4,5556.0,222.46,216.139,6.320999999999998,6.953185566281488,1.2875713210365394
39.0,82.9,5706.0,222.063,215.551,6.5120000000000005,7.177120553023598,1.3290389712174961
40.0,85.4,5856.0,221.372,215.431,5.9410000000000025,6.5602640355708335,1.2148112185571551
41.0,87.9,6006.0,221.197,215.133,6.063999999999993,6.708650556357426,1.242289016578212
42.0,90.4,6156.0,224.149,218.295,5.854000000000013,6.488307059861351,1.2014864284463684
43.0,92.9,6306.0,225.26,219.721,5.538999999999987,6.150372476940175,1.1389086540999194
44.0,95.4,6456.0,223.843,218.687,5.1559999999999775,5.735393292806396,1.0620639774802008
45.0,97.9,6606.0,222.796,217.284,5.5120000000000005,6.142268517351669,1.1374079856863506
46.0,100.4,6756.0,221.578,215.897,5.681000000000012,6.341659313642789,1.174330611802941
47.0,102.9,6906.0,220.766,215.143,5.6229999999999905,6.287733771016739,1.164344831688954
48.0,105.4,7056.0,220.099,214.698,5.400999999999982,6.049754834478826,1.1202765624365256
49.0,107.9,7206.0,219.506,213.754,5.7520000000000095,6.45371496446024,1.195080761641067
50.0,110.4,7356.0,218.833,213.252,5.580999999999989,6.272203954961115,1.1614690640881065
51.0,112.9,7506.0,218.592,213.107,5.485000000000014,6.174362730453776,1.1433511016822622
52.0,115.4,7656.0,217.797,212.447,5.349999999999994,6.032077715945029,1.117003163410178
53.0,117.9,7806.0,217.017,212.062,4.954999999999984,5.595577163346821,1.036173220388447
54.0,120.4,7956.0,216.721,211.713,5.00800000000001,5.664273867411029,1.0488942825778045
55.0,122.9,8106.0,216.955,211.801,5.154000000000025,5.838399379587405,1.0811383545361775
56.0,125.4,8256.0,216.997,211.589,5.4080000000000155,6.135450537538874,1.1361454513859675
57.0,127.89999999999999,8406.0,217.134,211.716,5.417999999999978,6.156023258602404,1.1399550499339393
58.0,130.39999999999998,8556.0,216.961,211.642,5.319000000000017,6.052488245070623,1.1207827277118612
59.0,132.89999999999998,8706.0,216.962,211.612,5.349999999999994,6.096658217635907,1.1289619988364266
60.0,135.39999999999998,8856.0,216.37,210.985,5.384999999999991,6.145389524645257,1.1379859250273423
61.0,137.89999999999998,9006.0,216.118,210.55,5.567999999999984,6.363268689168102,1.1783321751046354
62.0,140.39999999999998,9156.0,215.948,210.387,5.561000000000007,6.364189277494052,1.178502647058199
63.0,142.89999999999998,9306.0,215.757,210.04,5.717000000000013,6.551783151343208,1.2132407523004403
64.0,145.39999999999998,9456.0,215.744,209.952,5.792000000000002,6.646807774663114,1.2308371444307373
65.0,147.89999999999998,9606.0,214.999,209.296,5.703000000000003,6.553501937979287,1.2135590323691225
66.0,150.39999999999998,9756.0,214.757,208.813,5.944000000000017,6.83953762857168,1.266526315996015
67.0,152.89999999999998,9906.0,215.016,208.809,6.206999999999994,7.151548541833431,1.3243036182032815
68.0,155.39999999999998,10056.0,214.38,208.668,5.711999999999989,6.589760032778524,1.2202732042510458
69.0,157.89999999999998,10206.0,214.117,208.416,5.700999999999993,6.585492818878409,1.2194830135986978
70.0,160.39999999999998,10356.0,214.348,208.305,6.043000000000006,6.989378861681562,1.294273493548219
71.0,162.89999999999998,10506.0,213.752,208.105,5.64700000000002,6.539515294560189,1.2109690251310983
72.0,165.39999999999998,10656.0,213.494,208.01,5.484000000000009,6.358580321805985,1.1774639964402807
73.0,167.89999999999998,10806.0,213.858,208.149,5.709000000000003,6.627519022669984,1.2272653076592037
74.0,170.39999999999998,10956.0,213.7,208.447,5.252999999999986,6.105482147064527,1.1305959892373496
75.0,172.89999999999998,11106.0,213.689,208.089,5.599999999999994,6.516520038499045,1.2067108283748085
76.0,175.39999999999998,11256.0,213.222,208.07,5.152000000000015,6.002225943629564,1.1114752962837926
77.0,177.89999999999998,11406.0,212.928,207.318,5.609999999999985,6.543375926009615,1.2116839259902783
78.0,180.39999999999998,11556.0,212.772,207.485,5.286999999999978,6.173688405748581,1.1432262321324422
79.0,182.89999999999998,11706.0,212.759,206.875,5.883999999999986,6.878574026737066,1.2737549662707974
80.0,185.39999999999998,11856.0,213.375,207.534,5.841000000000008,6.8359266158592025,1.2658576388315463
81.0,187.89999999999998,12006.0,213.83,207.997,5.832999999999998,6.834091380652015,1.2655177951444183
82.0,190.39999999999998,12156.0,213.845,207.673,6.171999999999997,7.239150942987283,1.3405255841359354
83.0,192.89999999999998,12306.0,213.059,206.934,6.125,7.191758754066365,1.3317496320613018
84.0,195.39999999999998,12456.0,212.499,206.767,5.731999999999999,6.737472364202582,1.2476261577846552
85.0,197.89999999999998,12606.0,212.173,206.327,5.846000000000004,6.878694438012459,1.2737772636916627
86.0,200.39999999999998,12756.0,212.104,206.026,6.078000000000003,7.159109196145844,1.3257036788759238
87.0,202.89999999999998,12906.0,211.693,205.873,5.820000000000022,6.862259677036966,1.2707339209391333
88.0,205.39999999999998,13056.0,211.56,205.591,5.968999999999994,7.045089240665191,1.304589784632301
89.0,207.89999999999998,13206.0,211.254,204.858,6.395999999999987,7.556646521358421,1.3993185211817978
90.0,210.39999999999998,13356.0,211.221,204.516,6.7050000000000125,7.92958092336272,1.4683774634567186
91.0,212.89999999999998,13506.0,210.733,204.288,6.444999999999993,7.629574778814233,1.412823170510967
92.0,215.39999999999998,13656.0,210.397,204.147,6.25,7.40591349761594,1.3714062043517825
93.0,217.89999999999998,13806.0,209.797,203.767,6.030000000000001,7.152081733101334,1.3244023530606552
94.0,220.39999999999998,13956.0,209.791,203.678,6.1129999999999995,7.25740752112247,1.3439062858593471
95.0,222.89999999999998,14106.0,209.829,203.687,6.141999999999996,7.298681085420597,1.351549208258101
96.0,225.39999999999998,14256.0,210.091,203.714,6.3770000000000095,7.584972994449626,1.4045639376935066
97.0,227.89999999999998,14406.0,209.957,203.78,6.1769999999999925,7.353835929127902,1.361762626884257
98.0,230.39999999999998,14556.0,209.843,203.324,6.518999999999977,7.7680457560862886,1.4384648361089627
99.0,232.89999999999998,14706.0,209.098,203.038,6.060000000000002,7.227593222248104,1.3383853579592486
100.0,235.39999999999998,14856.0,208.816,203.091,5.724999999999994,6.834122421254245,1.2655235431557201
101.0,237.89999999999998,15006.0,209.078,202.815,6.263000000000005,7.482932666904852,1.3856683972130461
102.0,240.39999999999998,15156.0,208.994,202.953,6.040999999999997,7.223979009144552,1.337716088155374
103.0,242.89999999999998,15306.0,209.199,202.861,6.338000000000022,7.58567466868079,1.4046938717515214
104.0,245.39999999999998,15456.0,208.823,202.661,6.162000000000006,7.3813229414757275,1.3668525944196648
105.0,247.89999999999998,15606.0,208.275,202.349,5.926000000000016,7.104621748988503,1.3156138468633136
106.0,250.39999999999998,15756.0,207.269,201.66,5.609000000000009,6.730198769339756,1.2462792539724472
107.0,252.89999999999998,15906.0,207.255,201.265,5.990000000000009,7.193310614931026,1.332037001285743
108.0,255.39999999999998,16056.0,206.962,200.941,6.020999999999987,7.236467736905863,1.3400287155904413
109.0,257.90000000000003,16206.0,206.996,200.968,6.02800000000002,7.250764406324405,1.3426761325699224
110.0,260.40000000000003,16356.0,206.768,200.401,6.36699999999999,7.664689189644005,1.4193255582163604
111.0,262.90000000000003,16506.0,206.328,199.976,6.352000000000004,7.652723110813212,1.41710971343832
112.0,265.40000000000003,16656.0,205.923,199.863,6.060000000000002,7.306689846634955,1.3530322481048502
113.0,267.90000000000003,16806.0,205.304,199.495,5.8089999999999975,7.009527603222006,1.2980045807621514
114.0,270.40000000000003,16956.0,205.349,199.274,6.074999999999989,7.336177460889555,1.3584926814670963
115.0,272.90000000000003,17106.0,205.557,199.247,6.309999999999974,7.62581005146514,1.4121260289029938
116.0,275.40000000000003,17256.0,205.309,199.493,5.8160000000000025,7.034140908072746,1.3025624032364178
117.0,277.90000000000003,17406.0,205.726,199.391,6.335000000000008,7.667615870910433,1.4198675128109197
118.0,280.40000000000003,17556.0,204.924,199.13,5.794000000000011,7.01804838388685,1.2995824349287508
119.0,282.90000000000003,17706.0,205.01,198.693,6.316999999999979,7.657200408027449,1.4179388067271235
120.0,285.40000000000003,17856.0,204.798,198.606,6.192000000000007,7.511186391407927,1.3909003423460855
121.0,287.90000000000003,18006.0,204.825,198.482,6.342999999999989,7.699951597650793,1.4258553516221923
122.0,290.40000000000003,18156.0,204.989,198.373,6.616000000000014,8.037144231062221,1.4882957338479652
123.0,292.90000000000003,18306.0,204.441,198.508,5.932999999999993,7.212584860895522,1.3356061518717468
124.0,295.40000000000003,18456.0,205.355,198.595,6.759999999999991,8.223770765701824,1.5228547099396808
125.0,297.90000000000003,18606.0,205.109,198.788,6.320999999999998,7.695117264051489,1.4249601433411172
126.0,300.40000000000003,18756.0,204.829,198.76,6.069000000000017,7.393485560058581,1.3691048338754805
127.0,302.90000000000003,18906.0,204.797,198.476,6.320999999999998,7.705805737005631,1.4269394046610173
128.0,305.40000000000003,19056.0,204.42,198.098,6.321999999999974,7.712310626920009,1.428143961855761
129.0,307.90000000000003,19206.0,203.966,197.621,6.344999999999999,7.745635055778619,1.4343148857408279
130.0,310.40000000000003,19356.0,203.805,197.781,6.024000000000001,7.358739379597183,1.362670634032662
131.0,312.90000000000003,19506.0,203.603,197.355,6.248000000000019,7.6374828798664645,1.414287570392381
132.0,315.40000000000003,19656.0,203.426,197.072,6.353999999999985,7.77221790499429,1.439237422893801
133.0,317.90000000000003,19806.0,203.433,196.768,6.664999999999992,8.15801014952906,1.5106773442372112
134.0,320.40000000000003,19956.0,203.187,196.676,6.511000000000024,7.974729400268787,1.4767379312593665
135.0,322.90000000000003,20106.0,203.512,196.472,7.039999999999992,8.628255068208217,1.5977559739361804
136.0,325.40000000000003,20256.0,202.869,196.462,6.407000000000011,7.857511395948465,1.4550318313382193
137.0,327.90000000000003,20406.0,203.162,196.663,6.498999999999995,7.975442252939191,1.4768699353092782
138.0,330.40000000000003,20556.0,203.861,197.253,6.608000000000004,8.114358958005916,1.502594139524996
139.0,332.90000000000003,20706.0,203.932,197.505,6.4269999999999925,7.897078668762785,1.4623587874853992
140.0,335.40000000000003,20856.0,204.059,197.241,6.817999999999984,8.382763634501284,1.5522965616152993
141.0,337.90000000000003,21006.0,203.663,197.048,6.615000000000009,8.138235340614573,1.507015500813854
142.0,340.40000000000003,21156.0,203.426,197.16,6.265999999999991,7.713635405626673,1.4283892806457112
143.0,342.90000000000003,21306.0,202.919,196.569,6.350000000000023,7.821840344529266,1.4484263664961323
144.0,345.40000000000003,21456.0,202.556,195.957,6.599000000000018,8.13351128010453,1.506140712592888
145.0,347.90000000000003,21606.0,202.441,195.941,6.5,8.016342733873552,1.4844437711814378
146.0,350.40000000000003,21756.0,203.225,196.635,6.590000000000003,8.13222892348138,1.5059032494048903
147.0,352.90000000000003,21906.0,203.656,197.087,6.569000000000017,8.111160994682555,1.5020019496831407
148.0,355.40000000000003,22056.0,202.71,196.098,6.611999999999995,8.169106037190586,1.51273204946523
149.0,357.90000000000003,22206.0,202.212,195.466,6.745999999999981,8.339583001158681,1.5443004935417324
150.0,360.40000000000003,22356.0,201.726,195.303,6.423000000000002,7.944940386864187,1.4712216856513483
151.0,362.90000000000003,22506.0,201.642,195.236,6.406000000000006,7.9285326688994155,1.4681833506473836
152.0,365.40000000000003,22656.0,200.958,194.545,6.413000000000011,7.941796645293955,1.4706395364410338
153.0,367.90000000000003,22806.0,200.897,194.407,6.489999999999981,8.04178314067869,1.4891547540662677
154.0,370.40000000000003,22956.0,200.655,194.025,6.6299999999999955,8.219962892895706,1.5221495787774855
155.0,372.90000000000003,23106.0,200.837,194.212,6.625,8.218440910802894,1.5218677424198683
156.0,375.40000000000003,23256.0,200.846,194.299,6.546999999999997,8.126278579613144,1.5048013814852135
157.0,377.90000000000003,23406.0,200.855,194.291,6.563999999999993,8.151966032185483,1.5095581116094632
158.0,380.40000000000003,23556.0,200.326,193.989,6.336999999999989,7.874455960071694,1.4581695780018975
159.0,382.90000000000003,23706.0,200.17,194.037,6.132999999999981,7.625205336680065,1.4120140495221405
160.0,385.40000000000003,23856.0,200.633,193.824,6.8089999999999975,8.47036899898521,1.5685190762890704
161.0,387.90000000000003,24006.0,200.748,194.347,6.400999999999982,7.967204341258167,1.475344462024464
162.0,390.40000000000003,24156.0,200.978,194.338,6.640000000000015,8.269211138500697,1.5312692302016977
163.0,392.90000000000003,24306.0,201.305,194.8,6.5049999999999955,8.105502410232502,1.5009541089508462
164.0,395.40000000000003,24456.0,201.15,194.287,6.8629999999999995,8.556222343222265,1.5844171567877081
165.0,397.90000000000003,24606.0,200.224,193.647,6.576999999999998,8.204084784885882,1.5192093154534472
166.0,400.40000000000003,24756.0,200.561,193.614,6.947000000000003,8.670270874385611,1.605536342595775
167.0,402.90000000000003,24906.0,200.023,193.646,6.3770000000000095,7.963128220728014,1.4745896575041928
168.0,405.40000000000003,25056.0,200.485,193.673,6.812000000000012,8.510846027567661,1.5760144984472644
169.0,407.90000000000003,25206.0,199.751,193.186,6.564999999999998,8.206586032093083,1.5196724893670606
170.0,410.40000000000003,25356.0,199.184,192.531,6.652999999999992,8.320969728398381,1.5408537401121947
171.0,412.90000000000003,25506.0,199.104,192.204,6.900000000000006,8.634418066683093,1.5988972206370196
172.0,415.40000000000003,25656.0,199.282,192.707,6.575000000000017,8.232017102150442,1.5243817432992315
173.0,417.90000000000003,25806.0,199.084,192.472,6.611999999999995,8.282641381454035,1.5337562047684525
174.0,420.40000000000003,25956.0,198.718,192.223,6.494999999999976,8.140286219017334,1.5073952767006265
175.0,422.90000000000003,26106.0,198.324,192.135,6.189000000000021,7.760764938225734,1.4371165947623776
176.0,425.40000000000003,26256.0,198.703,192.067,6.635999999999996,8.325551083911188,1.5417021026236697
177.0,427.90000000000003,26406.0,198.15,191.963,6.187000000000012,7.766196082968855,1.4381223188502765
178.0,430.40000000000003,26556.0,198.582,191.909,6.673000000000002,8.380502474628813,1.5518778463981775
179.0,432.90000000000003,26706.0,198.126,191.586,6.539999999999992,8.217627924560885,1.5217171959171711
180.0,435.40000000000003,26856.0,198.571,191.843,6.728000000000009,8.458115470373112,1.5662500023700674
181.0,437.90000000000003,27006.0,198.939,191.798,7.140999999999991,8.981827078128147,1.6632294429748633
182.0,440.40000000000003,27156.0,198.038,191.55,6.4879999999999995,8.164576667141887,1.5118933134755927
183.0,442.90000000000003,27306.0,197.348,190.664,6.684000000000026,8.415416324396844,1.5583430947709944
184.0,445.40000000000003,27456.0,197.491,190.738,6.753000000000014,8.506510180022744,1.5752115984098636
185.0,447.90000000000003,27606.0,197.761,191.2,6.561000000000007,8.26874156139735,1.531182275236161
186.0,450.40000000000003,27756.0,197.391,190.658,6.733000000000004,8.489691469045324,1.5720971568772886
187.0,452.90000000000003,27906.0,197.19,190.537,6.652999999999992,8.392936791089513,1.5541803981018352
188.0,455.40000000000003,28056.0,197.094,190.512,6.581999999999994,8.307429821653036,1.5383464583132795
189.0,457.90000000000003,28206.0,196.816,190.392,6.424000000000007,8.111963033018688,1.5021504688834602
190.0,460.40000000000003,28356.0,196.985,190.564,6.421000000000021,8.112113068084703,1.502178251954444
191.0,462.90000000000003,28506.0,196.832,190.564,6.268000000000001,7.922650347077341,1.4670940788586455
192.0,465.40000000000003,28656.0,196.564,190.194,6.3700000000000045,8.055461116683404,1.4916876031417905
193.0,467.90000000000003,28806.0,196.528,190.109,6.418999999999983,8.121329471120092,1.5038849195125523
194.0,470.40000000000003,28956.0,196.797,190.031,6.765999999999991,8.564457332907978,1.58594208898566
195.0,472.90000000000003,29106.0,196.591,189.522,7.069000000000017,8.952272150378922,1.6577565446892564
196.0,475.40000000000003,29256.0,196.004,189.419,6.5849999999999795,8.343300005133326,1.5449887978696277
197.0,477.90000000000003,29406.0,196.349,189.582,6.766999999999996,8.577967647766295,1.588443891042274
198.0,480.40000000000003,29556.0,196.741,189.916,6.825000000000017,8.655584545466635,1.6028167695673945
199.0,482.90000000000003,29706.0,196.664,189.773,6.890999999999991,8.743411160718724,1.6190802548353098
