"Frame","Time (aligned)","Time [ s]","Intensity Ch3-T2","background","Intensity (bg-subst)","bleach-Corrected","Normalized"
1.0,-12.200000000000001,0.0,249.563,242.502,7.060999999999979,7.060999999999979,0.9463566676425869
2.0,-9.733333333333334,148.0,243.578,236.292,7.286000000000001,7.310197712158563,0.9797556078015665
3.0,-7.233333333333333,298.0,241.376,233.798,7.578000000000003,7.628050017640443,1.0223560395560412
4.0,-4.733333333333333,448.0,240.168,232.482,7.686000000000007,7.7617132479205715,1.040270370273255
5.0,-0.3333333333333333,712.0,240.337,232.889,7.447999999999979,7.545269545224918,1.0112613147265503
6.0,0.39999999999999997,756.0,261.342,254.552,6.789999999999992,6.900214984021661,0.9248073160028614
7.0,2.9,906.0,257.327,250.09,7.236999999999995,7.377162310101985,0.9887305962960804
8.0,5.4,1056.0,254.205,247.419,6.786000000000001,6.9384582987342895,0.9299329095265904
9.0,7.8999999999999995,1206.0,252.418,245.558,6.860000000000014,7.03513319886858,0.9428898471184
10.0,10.399999999999999,1356.0,250.354,243.569,6.785000000000025,6.978758006232088,0.9353341128822888
11.0,12.899999999999999,1506.0,248.367,241.91,6.456999999999994,6.66070841590465,0.8927072398547623
12.0,15.399999999999999,1656.0,246.792,239.847,6.944999999999993,7.184636096296133,0.9629271030045989
13.0,17.900000000000002,1806.0,245.057,238.341,6.71599999999998,6.967354594311042,0.9338057606792927
14.0,20.400000000000002,1956.0,243.475,236.818,6.656999999999982,6.92536329903429,0.9281778407999408
15.0,22.900000000000002,2106.0,241.6,235.199,6.400999999999982,6.677300941262658,0.8949310675003621
16.0,25.400000000000002,2256.0,240.09,233.665,6.425000000000011,6.720444148533458,0.9007133733868099
17.0,27.900000000000002,2406.0,238.542,232.086,6.455999999999989,6.770846200250963,0.9074685522149826
18.0,30.400000000000002,2556.0,237.279,230.937,6.3419999999999845,6.668733560855224,0.8937828168881534
19.0,32.9,2706.0,236.193,229.922,6.271000000000015,6.611119430952989,0.8860610330072008
20.0,35.4,2856.0,235.494,228.942,6.5519999999999925,6.924952328718436,0.9281227601458392
21.0,37.9,3006.0,235.547,228.808,6.739000000000004,7.140472082314334,0.9570079826106694
22.0,40.4,3156.0,235.081,228.28,6.800999999999988,7.223986614261901,0.9682010904075297
23.0,42.9,3306.0,233.884,227.434,6.449999999999989,6.867851932282766,0.92046982983966
24.0,45.4,3456.0,233.815,226.883,6.931999999999988,7.398802204301177,0.9916309019415251
25.0,47.9,3606.0,232.822,226.312,6.509999999999991,6.964827235027327,0.9334670291526431
26.0,50.4,3756.0,231.891,225.266,6.625,7.104390353166762,0.9521720974727458
27.0,52.9,3906.0,230.25,224.034,6.216000000000008,6.6811130958284695,0.8954419948323887
28.0,55.4,4056.0,228.929,222.988,5.9410000000000025,6.399997367159718,0.8577652147438916
29.0,57.9,4206.0,228.331,221.916,6.414999999999992,6.92604163106642,0.9282687548406549
30.0,60.4,4356.0,227.788,221.658,6.130000000000024,6.6328946469892385,0.888979475279579
31.0,62.9,4506.0,227.766,221.527,6.239000000000004,6.7654706501094,0.9067480894308564
32.0,65.4,4656.0,227.668,221.322,6.346000000000004,6.8962013991049815,0.9242693917928275
33.0,67.9,4806.0,227.912,221.512,6.400000000000006,6.969527487572534,0.9340969845889496
34.0,70.4,4956.0,228.084,221.957,6.1270000000000095,6.686080508274557,0.8961077566068237
35.0,72.9,5106.0,227.56,221.903,5.657000000000011,6.185820866676987,0.8290600229461025
36.0,75.4,5256.0,227.931,221.62,6.311000000000007,6.9148707670273515,0.9267715700698432
37.0,77.9,5406.0,227.751,221.811,5.939999999999998,6.521305630451586,0.8740236602624303
38.0,80.4,5556.0,227.735,221.932,5.803000000000026,6.3833785542052945,0.8555378638803136
39.0,82.9,5706.0,227.565,221.627,5.937999999999988,6.5444935263903625,0.8771314381876907
40.0,85.4,5856.0,227.045,221.176,5.869,6.480759068299142,0.8685893719968943
41.0,87.9,6006.0,226.618,221.069,5.549000000000007,6.138902034503207,0.8227716856474677
42.0,90.4,6156.0,228.222,221.702,6.52000000000001,7.226471136025961,0.9685340805983413
43.0,92.9,6306.0,229.714,222.739,6.974999999999994,7.744872364444446,1.038013256214818
44.0,95.4,6456.0,230.205,223.32,6.885000000000019,7.658685574277021,1.0264619966853386
45.0,97.9,6606.0,230.223,223.588,6.635000000000019,7.393677723626349,0.9909440889610934
46.0,100.4,6756.0,229.377,222.876,6.501000000000005,7.2570193976398025,0.9726283379362749
47.0,102.9,6906.0,228.523,222.28,6.242999999999995,6.981028264708791,0.9356383862496165
48.0,105.4,7056.0,227.721,221.091,6.6299999999999955,7.426379291352476,0.995326945023972
49.0,107.9,7206.0,226.287,220.165,6.122000000000014,6.868853096736025,0.9206040117764605
50.0,110.4,7356.0,226.396,219.637,6.758999999999986,7.596098643895749,1.0180737288941475
51.0,112.9,7506.0,226.136,219.609,6.526999999999987,7.347322797023084,0.9847313295971105
52.0,115.4,7656.0,225.228,219.473,5.7549999999999955,6.488711636497879,0.8696552218679829
53.0,117.9,7806.0,224.913,218.816,6.097000000000008,6.885213716433042,0.922796758064102
54.0,120.4,7956.0,224.986,218.934,6.0519999999999925,6.845084953189185,0.9174184656607491
55.0,122.9,8106.0,224.831,218.896,5.935000000000002,6.723108327095672,0.9010704422362847
56.0,125.4,8256.0,225.403,218.695,6.707999999999998,7.610318455216465,1.0199795514767815
57.0,127.89999999999999,8406.0,224.758,218.755,6.003000000000014,6.820710155295398,0.9141516121684355
58.0,130.39999999999998,8556.0,225.225,218.696,6.528999999999996,7.429346823099445,0.9957246710479325
59.0,132.89999999999998,8706.0,225.558,218.664,6.8940000000000055,7.856142383622808,1.0529263173333796
60.0,135.39999999999998,8856.0,224.531,218.409,6.122000000000014,6.986457691713725,0.9363660699272256
61.0,137.89999999999998,9006.0,224.165,218.073,6.0919999999999845,6.962110785634355,0.9331029546596035
62.0,140.39999999999998,9156.0,223.816,217.933,5.88300000000001,6.732696550889683,0.9023555122714513
63.0,142.89999999999998,9306.0,223.628,217.504,6.123999999999995,7.018212352427091,0.9406220159539672
64.0,145.39999999999998,9456.0,223.436,217.043,6.393000000000001,7.336505888021629,0.9832815839581345
65.0,147.89999999999998,9606.0,222.633,216.512,6.121000000000009,7.033839270975146,0.9427164273068435
66.0,150.39999999999998,9756.0,221.927,215.828,6.0989999999999895,7.017890308993689,0.9405788538026472
67.0,152.89999999999998,9906.0,221.579,215.578,6.001000000000005,6.91420054769494,0.9266817433407665
68.0,155.39999999999998,10056.0,221.425,214.951,6.474000000000018,7.468856171605106,1.0010199458521454
69.0,157.89999999999998,10206.0,221.176,214.867,6.3089999999999975,7.287822170549713,0.9767567063720736
70.0,160.39999999999998,10356.0,220.416,214.431,5.984999999999985,6.922295629184842,0.9277666936796815
71.0,162.89999999999998,10506.0,220.521,214.221,6.299999999999983,7.29572274760562,0.9778155880850152
72.0,165.39999999999998,10656.0,220.074,213.782,6.292000000000002,7.295438983370387,0.9777775563365305
73.0,167.89999999999998,10806.0,220.256,213.817,6.438999999999993,7.474968468553504,1.0018391517679828
74.0,170.39999999999998,10956.0,220.569,214.038,6.5309999999999775,7.590882144008832,1.0173745829587644
75.0,172.89999999999998,11106.0,221.16,214.79,6.3700000000000045,7.412541543792676,0.993472328869267
76.0,175.39999999999998,11256.0,221.28,214.984,6.295999999999992,7.335018350367154,0.9830822154299257
77.0,177.89999999999998,11406.0,220.757,214.691,6.0660000000000025,7.07524391571737,0.9482657208379547
78.0,180.39999999999998,11556.0,221.125,214.599,6.5260000000000105,7.620482416477298,1.0213417852267959
79.0,182.89999999999998,11706.0,220.943,214.334,6.609000000000009,7.726120962390455,1.0355000832419472
80.0,185.39999999999998,11856.0,220.918,214.386,6.532000000000011,7.64462808676465,1.0245779296923296
81.0,187.89999999999998,12006.0,220.929,214.577,6.352000000000004,7.442165000840328,0.997442638470693
82.0,190.39999999999998,12156.0,220.823,214.316,6.507000000000005,7.632073102076849,1.0228952369474706
83.0,192.89999999999998,12306.0,219.946,214.073,5.8729999999999905,6.895869251041908,0.9242248753597254
84.0,195.39999999999998,12456.0,219.614,213.728,5.885999999999996,6.9184861018311885,0.9272561184620499
85.0,197.89999999999998,12606.0,219.659,213.203,6.455999999999989,7.596450785461569,1.0181209249738483
86.0,200.39999999999998,12756.0,219.382,213.076,6.306000000000012,7.427664131440565,0.9954991468345112
87.0,202.89999999999998,12906.0,218.863,212.472,6.390999999999991,7.535515738134541,1.0099540522460408
88.0,205.39999999999998,13056.0,217.975,212.348,5.626999999999981,6.641433599802803,0.890123915858789
89.0,207.89999999999998,13206.0,217.551,211.489,6.061999999999983,7.162037400324378,0.9598982931174869
90.0,210.39999999999998,13356.0,217.554,211.076,6.478000000000009,7.661122329834999,1.0267885849688263
91.0,212.89999999999998,13506.0,216.869,210.765,6.104000000000013,7.225899837064737,0.9684575117580677
92.0,215.39999999999998,13656.0,216.55,210.539,6.011000000000024,7.122711365467135,0.9546275870844749
93.0,217.89999999999998,13806.0,215.823,210.019,5.804000000000002,6.884026928510805,0.9226376977803905
94.0,220.39999999999998,13956.0,216.156,209.997,6.158999999999992,7.3120191268760415,0.9799997244935971
95.0,222.89999999999998,14106.0,216.355,210.088,6.266999999999996,7.4472214852378515,0.9981203381909065
96.0,225.39999999999998,14256.0,216.78,210.144,6.635999999999996,7.8930344662329635,1.0578708107990842
97.0,227.89999999999998,14406.0,216.777,210.38,6.396999999999991,7.615750111483112,1.020707533933131
98.0,230.39999999999998,14556.0,216.418,210.102,6.3160000000000025,7.526150789299154,1.0086989068314394
99.0,232.89999999999998,14706.0,216.456,210.071,6.384999999999991,7.615211670635984,1.020635368930184
100.0,235.39999999999998,14856.0,216.269,209.914,6.355000000000018,7.586174320885745,1.0167436128691716
101.0,237.89999999999998,15006.0,216.027,209.793,6.2339999999999804,7.448283928705838,0.9982627331009649
102.0,240.39999999999998,15156.0,215.441,209.492,5.949000000000012,7.113963106340184,0.9534550940445294
103.0,242.89999999999998,15306.0,215.818,209.278,6.5400000000000205,7.827439623409963,1.049079404926189
104.0,245.39999999999998,15456.0,215.554,209.521,6.0330000000000155,7.2267967065762955,0.9685777154745766
105.0,247.89999999999998,15606.0,215.081,208.985,6.095999999999975,7.308433037771452,0.979519095781674
106.0,250.39999999999998,15756.0,215.192,208.482,6.710000000000008,8.051280752766937,1.0790799070164905
107.0,252.89999999999998,15906.0,214.561,208.112,6.449000000000012,7.744517555207047,1.037965702598113
108.0,255.39999999999998,16056.0,214.06,208.032,6.027999999999992,7.244880836749473,0.9710014567531352
109.0,257.90000000000003,16206.0,213.979,207.449,6.530000000000001,7.854593824369313,1.052718770332277
110.0,260.40000000000003,16356.0,213.194,207.154,6.039999999999992,7.271041731655379,0.9745076934512944
111.0,262.90000000000003,16506.0,213.462,206.802,6.659999999999997,8.0237934379748,1.0753958957391745
112.0,265.40000000000003,16656.0,213.569,206.671,6.897999999999996,8.317086891433641,1.1147048059865468
113.0,267.90000000000003,16806.0,212.655,206.354,6.300999999999988,7.603207682544636,1.019026523983498
114.0,270.40000000000003,16956.0,212.216,205.778,6.438000000000017,7.774536706700768,1.0419890454919036
115.0,272.90000000000003,17106.0,211.778,205.278,6.5,7.855430322428465,1.0528308827123576
116.0,275.40000000000003,17256.0,212.09,205.607,6.483000000000004,7.840841730920843,1.050875634044357
117.0,277.90000000000003,17406.0,212.59,206.497,6.092999999999989,7.374709313568608,0.988401831301736
118.0,280.40000000000003,17556.0,212.993,206.658,6.335000000000008,7.673340785627056,1.0284261741356737
119.0,282.90000000000003,17706.0,212.748,206.289,6.459000000000003,7.829326806308292,1.0493323362558724
120.0,285.40000000000003,17856.0,212.26,206.151,6.1089999999999804,7.410503498887407,0.9931991781278626
121.0,287.90000000000003,18006.0,211.976,205.641,6.335000000000008,7.690240165713056,1.0306911282531377
122.0,290.40000000000003,18156.0,212.198,205.508,6.689999999999998,8.1270397378788,1.0892335709018393
123.0,292.90000000000003,18306.0,212.298,205.5,6.798000000000002,8.264141561498034,1.1076087620826947
124.0,295.40000000000003,18456.0,211.757,205.54,6.217000000000013,7.563192729344439,1.0136634850702544
125.0,297.90000000000003,18606.0,212.018,205.341,6.6769999999999925,8.128507826621064,1.0894303327726695
126.0,300.40000000000003,18756.0,211.73,205.11,6.619999999999976,8.064734619803508,1.080883073250117
127.0,302.90000000000003,18906.0,211.449,205.099,6.350000000000023,7.741159061855079,1.0375155776049296
128.0,305.40000000000003,19056.0,211.52,204.96,6.560000000000002,8.002650697974609,1.0725622216177446
129.0,307.90000000000003,19206.0,210.818,204.648,6.170000000000016,7.532004459283564,1.0094834500434384
130.0,310.40000000000003,19356.0,210.104,204.282,5.822000000000003,7.111982182605381,0.9531895990176887
131.0,312.90000000000003,19506.0,209.904,203.768,6.135999999999996,7.500575376258075,1.0052711398495475
132.0,315.40000000000003,19656.0,209.72,203.347,6.3729999999999905,7.795458720259467,1.0447931365599938
133.0,317.90000000000003,19806.0,209.572,202.898,6.674000000000007,8.169026217247872,1.0948608453249746
134.0,320.40000000000003,19956.0,209.172,202.882,6.289999999999992,7.7040466791108,1.0325415582221011
135.0,322.90000000000003,20106.0,209.365,203.017,6.348000000000013,7.780136814344593,1.042739604790622
136.0,325.40000000000003,20256.0,209.43,203.027,6.40300000000002,7.852605816803199,1.0524523258887823
137.0,327.90000000000003,20406.0,209.774,203.065,6.709000000000003,8.233150034615955,1.1034550957315716
138.0,330.40000000000003,20556.0,209.899,203.557,6.342000000000013,7.787721627069248,1.043756165914372
139.0,332.90000000000003,20706.0,210.096,203.935,6.161000000000001,7.570235207444778,1.014607359324182
140.0,335.40000000000003,20856.0,210.223,203.96,6.263000000000005,7.700388477982064,1.0320512646334088
141.0,337.90000000000003,21006.0,210.102,203.658,6.444000000000017,7.927859188952437,1.0625382245569623
142.0,340.40000000000003,21156.0,210.009,203.461,6.547999999999973,8.060785929786677,1.0803538466354898
143.0,342.90000000000003,21306.0,209.386,202.872,6.513999999999982,8.023853229017844,1.0754039092857328
144.0,345.40000000000003,21456.0,209.136,202.609,6.526999999999987,8.044768620282166,1.078207112795058
145.0,347.90000000000003,21606.0,208.66,202.296,6.364000000000004,7.848616178210973,1.0519176111057151
146.0,350.40000000000003,21756.0,208.779,202.328,6.450999999999993,7.960699360451942,1.066939657111145
147.0,352.90000000000003,21906.0,208.805,202.396,6.40900000000002,7.913598845322047,1.0606269695962638
148.0,355.40000000000003,22056.0,208.534,201.97,6.563999999999993,8.10980218211116,1.0869232924944512
149.0,357.90000000000003,22206.0,208.415,201.735,6.679999999999978,8.257992061627627,1.106784570012871
150.0,360.40000000000003,22356.0,207.693,201.515,6.178000000000026,7.641887234944284,1.02421058464273
151.0,362.90000000000003,22506.0,208.107,201.346,6.760999999999996,8.36790655236167,1.1215159552524547
152.0,365.40000000000003,22656.0,207.302,200.956,6.346000000000004,7.858824498836018,1.0532857901581079
153.0,367.90000000000003,22806.0,206.353,200.405,5.9480000000000075,7.370188924615879,0.9877959822398817
154.0,370.40000000000003,22956.0,206.616,200.161,6.4550000000000125,8.002995546552327,1.0726084402483709
155.0,372.90000000000003,23106.0,206.53,200.351,6.179000000000002,7.665169266090732,1.0273309791210905
156.0,375.40000000000003,23256.0,207.033,200.52,6.512999999999977,8.084077041243356,1.0834754581103283
157.0,377.90000000000003,23406.0,206.893,200.578,6.314999999999998,7.842727832609896,1.0511284204640265
158.0,380.40000000000003,23556.0,206.609,200.369,6.240000000000009,7.753922233051528,1.03922617272772
159.0,382.90000000000003,23706.0,206.321,200.224,6.097000000000008,7.580446264102163,1.0159759050756891
160.0,385.40000000000003,23856.0,206.191,200.009,6.182000000000016,7.690383485346854,1.0307103367917367
161.0,387.90000000000003,24006.0,206.943,200.576,6.367000000000019,7.924885180564137,1.0621396304955133
162.0,390.40000000000003,24156.0,207.526,200.842,6.6839999999999975,8.324007115924477,1.1156322950941073
163.0,392.90000000000003,24306.0,207.187,200.877,6.310000000000002,7.862524244207093,1.0537816517500207
164.0,395.40000000000003,24456.0,207.317,201.212,6.105000000000018,7.61121046267989,1.0200991035530595
165.0,397.90000000000003,24606.0,207.127,200.753,6.374000000000024,7.9508645915862575,1.0656215436582681
166.0,400.40000000000003,24756.0,206.6,200.43,6.1699999999999875,7.700528471996415,1.0320700274529684
167.0,402.90000000000003,24906.0,207.012,200.494,6.518000000000001,8.139198642418869,1.0908631786603329
168.0,405.40000000000003,25056.0,206.96,200.243,6.717000000000013,8.392153958774514,1.1247657349907119
169.0,407.90000000000003,25206.0,206.367,200.19,6.1769999999999925,7.7215661721613005,1.034889623519093
170.0,410.40000000000003,25356.0,206.157,199.551,6.606000000000023,8.262186385961217,1.1073467179804883
171.0,412.90000000000003,25506.0,205.499,199.193,6.305999999999983,7.891107293986,1.0576125198621618
172.0,415.40000000000003,25656.0,205.456,199.355,6.100999999999999,7.638560660109461,1.0237647375565742
173.0,417.90000000000003,25806.0,205.838,199.361,6.477000000000004,8.113531189908931,1.0874230760085586
174.0,420.40000000000003,25956.0,205.753,199.31,6.442999999999984,8.0751137966326,1.0822741514538916
175.0,422.90000000000003,26106.0,205.261,199.105,6.156000000000006,7.719384223576911,1.034597185961907
176.0,425.40000000000003,26256.0,205.214,198.854,6.359999999999985,7.979280424001668,1.0694300003177977
177.0,427.90000000000003,26406.0,204.798,198.688,6.110000000000014,7.669542276861114,1.0279170756938456
178.0,430.40000000000003,26556.0,204.899,198.547,6.352000000000004,7.9773642617776455,1.0691731850087778
179.0,432.90000000000003,26706.0,205.146,198.191,6.954999999999984,8.739082907541421,1.171263189156382
180.0,435.40000000000003,26856.0,204.299,198.204,6.094999999999999,7.66233855409097,1.0269515904827742
181.0,437.90000000000003,27006.0,204.702,198.491,6.210999999999984,7.812089060671313,1.0470220324010808
182.0,440.40000000000003,27156.0,205.019,198.721,6.298000000000002,7.925478398529535,1.0622191370493894
183.0,442.90000000000003,27306.0,204.778,198.284,6.494,8.176198924391516,1.0958221736397227
184.0,445.40000000000003,27456.0,204.312,197.746,6.5660000000000025,8.270953034507514,1.1085216756783594
185.0,447.90000000000003,27606.0,204.257,197.999,6.25800000000001,7.886874667158152,1.0570452383694304
186.0,450.40000000000003,27756.0,204.137,197.857,6.280000000000001,7.918500285995042,1.0612838894464185
187.0,452.90000000000003,27906.0,204.319,197.509,6.810000000000002,8.590996474871437,1.1514157761915547
188.0,455.40000000000003,28056.0,203.903,197.114,6.788999999999987,8.568693567183592,1.1484266095865117
189.0,457.90000000000003,28206.0,203.264,196.984,6.280000000000001,7.930125754569942,1.0628420029856236
190.0,460.40000000000003,28356.0,202.782,196.536,6.246000000000009,7.891022928400089,1.0576012126911172
191.0,462.90000000000003,28506.0,202.933,196.534,6.399000000000001,8.088232222550719,1.0840323598998038
192.0,465.40000000000003,28656.0,203.267,196.592,6.674999999999983,8.441162159161937,1.1313341016818041
193.0,467.90000000000003,28806.0,203.101,196.745,6.3559999999999945,8.041621766387193,1.0777853529642119
194.0,470.40000000000003,28956.0,202.895,196.714,6.181000000000012,7.8239596178989625,1.048612994160183
195.0,472.90000000000003,29106.0,202.983,196.533,6.450000000000017,8.168362621296374,1.094771906300287
196.0,475.40000000000003,29256.0,202.439,196.387,6.0519999999999925,7.667980505856794,1.0277077579763454
197.0,477.90000000000003,29406.0,202.675,196.433,6.242000000000019,7.912468458306105,1.0604754684930837
198.0,480.40000000000003,29556.0,202.689,196.572,6.11699999999999,7.757686544266548,1.0397306878130361
199.0,482.90000000000003,29706.0,203.19,196.637,6.552999999999997,8.31455134758233,1.114364977516105
