"Frame","Time (aligned)","Time [ s]","Intensity Ch3-T2","background","Intensity (bg-subst)","bleach-Corrected","Normalized"
1.0,-12.200000000000001,0.0,242.553,236.534,6.0190000000000055,6.0190000000000055,1.0757050434285325
2.0,-9.733333333333334,148.0,236.036,230.776,5.259999999999991,5.2774691141852825,0.94317995392381
3.0,-7.233333333333333,298.0,233.383,228.569,4.814000000000021,4.845794772356986,0.8660318783924278
4.0,-4.733333333333333,448.0,233.05,227.677,5.373000000000019,5.425928347785238,0.969712325800701
5.0,-0.3333333333333333,712.0,233.393,227.537,5.8559999999999945,5.932478310531311,1.0602420399848653
6.0,0.39999999999999997,756.0,234.403,228.94,5.462999999999994,5.551675177866028,0.9921855770572314
7.0,2.9,906.0,230.453,224.687,5.765999999999991,5.877672776018794,1.0504472917072594
8.0,5.4,1056.0,230.887,225.24,5.646999999999991,5.773868849536172,1.031895637405043
9.0,7.8999999999999995,1206.0,232.012,226.767,5.2450000000000045,5.378902861234062,0.9613080139461104
10.0,10.399999999999999,1356.0,230.657,225.163,5.494,5.650891154935733,1.009917281148039
11.0,12.899999999999999,1506.0,228.989,222.943,6.045999999999992,6.236741998228203,1.1146195085656445
12.0,15.399999999999999,1656.0,227.086,220.918,6.168000000000006,6.380825837574462,1.1403699177135624
13.0,17.900000000000002,1806.0,226.244,219.803,6.4410000000000025,6.682062379683975,1.1942063801844338
14.0,20.400000000000002,1956.0,226.243,219.778,6.465000000000003,6.725623212897225,1.2019914953170874
15.0,22.900000000000002,2106.0,226.385,219.76,6.625,6.910969963422158,1.2351163390324487
16.0,25.400000000000002,2256.0,225.689,219.341,6.347999999999985,6.639903417103535,1.186671804893938
17.0,27.900000000000002,2406.0,224.463,218.132,6.330999999999989,6.639750200400998,1.18664442227562
18.0,30.400000000000002,2556.0,222.933,217.0,5.932999999999993,6.238662285801655,1.1149626989673054
19.0,32.9,2706.0,222.001,216.083,5.918000000000006,6.238973814763154,1.115018374872781
20.0,35.4,2856.0,221.438,215.405,6.032999999999987,6.376409859456392,1.1395807019080668
21.0,37.9,3006.0,220.686,214.519,6.167000000000002,6.534395508477887,1.167815617914339
22.0,40.4,3156.0,219.567,213.528,6.039000000000016,6.414594201371536,1.1464049400170748
23.0,42.9,3306.0,219.792,213.488,6.304000000000002,6.7123935784667665,1.1996271184306344
24.0,45.4,3456.0,221.17,214.588,6.581999999999994,7.025233137436581,1.2555372515703234
25.0,47.9,3606.0,221.9,215.533,6.367000000000019,6.811836406362394,1.217399364900168
26.0,50.4,3756.0,221.051,215.004,6.046999999999997,6.48456580612821,1.158910141567755
27.0,52.9,3906.0,219.861,213.965,5.895999999999987,6.337169049711151,1.1325676537354177
28.0,55.4,4056.0,218.868,212.911,5.956999999999994,6.417233515598448,1.1468766335916025
29.0,57.9,4206.0,217.993,212.427,5.5660000000000025,6.009407282699261,1.0739906499444662
30.0,60.4,4356.0,217.877,212.638,5.239000000000004,5.6687985408770825,1.0131176575181555
31.0,62.9,4506.0,217.966,212.256,5.710000000000008,6.1918316095728,1.1065932032692578
32.0,65.4,4656.0,217.258,211.285,5.973000000000013,6.490862111070615,1.160035406060446
33.0,67.9,4806.0,216.465,210.461,6.003999999999991,6.538287974278967,1.1685112725236753
34.0,70.4,4956.0,215.887,210.086,5.800999999999988,6.3303334467929755,1.1313460068615258
35.0,72.9,5106.0,216.058,209.833,6.224999999999994,6.806917959176973,1.2165203487109015
36.0,75.4,5256.0,216.209,210.194,6.015000000000015,6.590547878889174,1.1778510703236909
37.0,77.9,5406.0,216.378,210.642,5.73599999999999,6.2973415986986945,1.1254497620721842
38.0,80.4,5556.0,216.482,210.85,5.632000000000005,6.195276239407908,1.107208821426156
39.0,82.9,5706.0,216.376,210.949,5.4269999999999925,5.98130117341201,1.0689675757608064
40.0,85.4,5856.0,216.013,210.692,5.320999999999998,5.875637928509069,1.0500836273562344
41.0,87.9,6006.0,216.567,210.609,5.957999999999998,6.591381928558309,1.1780001302066545
42.0,90.4,6156.0,215.999,210.192,5.806999999999988,6.436214399831687,1.150268863679396
43.0,92.9,6306.0,215.903,209.94,5.962999999999994,6.621171886621107,1.1833241388678402
44.0,95.4,6456.0,215.338,209.783,5.555000000000007,6.179229973145793,1.104341061076205
45.0,97.9,6606.0,215.324,209.728,5.596000000000004,6.235873480243098,1.1144642885661622
46.0,100.4,6756.0,214.852,209.68,5.171999999999997,5.773466285893402,1.031823691942204
47.0,102.9,6906.0,214.591,209.521,5.070000000000022,5.669359811320479,1.0132179667799415
48.0,105.4,7056.0,214.941,209.205,5.73599999999999,6.424994210437068,1.1482636112587257
49.0,107.9,7206.0,214.343,208.667,5.675999999999988,6.368443348100866,1.1381569410767545
50.0,110.4,7356.0,213.769,208.287,5.481999999999999,6.160942856315517,1.1010728198726671
51.0,112.9,7506.0,213.657,208.326,5.331000000000017,6.00100778779382,1.0724895070582665
52.0,115.4,7656.0,213.38,208.101,5.278999999999996,5.95202584345305,1.0637355405249054
53.0,117.9,7806.0,213.157,207.893,5.26400000000001,5.9445243567826065,1.062394888083535
54.0,120.4,7956.0,213.458,207.808,5.650000000000006,6.390404822458523,1.1420818569643865
55.0,122.9,8106.0,213.872,208.175,5.697000000000003,6.45350432004449,1.153358887665671
56.0,125.4,8256.0,213.771,208.177,5.593999999999994,6.346470101145031,1.13422992121118
57.0,127.89999999999999,8406.0,213.694,208.508,5.185999999999979,5.892420933760071,1.0530830563963391
58.0,130.39999999999998,8556.0,212.576,207.104,5.47199999999998,6.226586891713898,1.1128046058751657
59.0,132.89999999999998,8706.0,211.052,205.702,5.349999999999994,6.096658217635907,1.0895839828494678
60.0,135.39999999999998,8856.0,210.149,205.055,5.093999999999994,5.813298837241031,1.0389424951283261
61.0,137.89999999999998,9006.0,209.368,204.246,5.121999999999986,5.853567210114766,1.0461391875674253
62.0,140.39999999999998,9156.0,208.876,203.461,5.414999999999992,6.197102128687322,1.1075351411315237
63.0,142.89999999999998,9306.0,208.988,203.027,5.961000000000013,6.831411468454934,1.2208977854049647
64.0,145.39999999999998,9456.0,210.69,204.189,6.501000000000005,7.460444983267425,1.3333175435656845
65.0,147.89999999999998,9606.0,211.711,204.555,7.156000000000006,8.223191279708889,1.4696342137664682
66.0,150.39999999999998,9756.0,211.211,204.244,6.967000000000013,8.016665319357141,1.4327242590980356
67.0,152.89999999999998,9906.0,209.915,203.553,6.361999999999995,7.330135624801723,1.3100288852989472
68.0,155.39999999999998,10056.0,209.248,202.766,6.481999999999999,7.478085527393289,1.336470230438091
69.0,157.89999999999998,10206.0,208.817,202.5,6.317000000000007,7.29706334622961,1.3041182661167416
70.0,160.39999999999998,10356.0,210.207,203.971,6.23599999999999,7.212604100851581,1.2890238590362775
71.0,162.89999999999998,10506.0,209.916,203.713,6.203000000000003,7.1833917783171115,1.283803084375937
72.0,165.39999999999998,10656.0,209.503,203.432,6.070999999999998,7.039194225690018,1.2580323525914185
73.0,167.89999999999998,10806.0,208.888,202.969,5.919000000000011,6.871305849567995,1.2280276386975018
74.0,170.39999999999998,10956.0,207.834,202.496,5.337999999999994,6.2042763565639625,1.108817306459586
75.0,172.89999999999998,11106.0,207.506,202.328,5.177999999999997,6.025453707026441,1.076858438543526
76.0,175.39999999999998,11256.0,207.751,202.021,5.730000000000018,6.675612316963783,1.1930536363734119
77.0,177.89999999999998,11406.0,207.552,201.794,5.757999999999981,6.7159997472305415,1.200271606539398
78.0,180.39999999999998,11556.0,207.207,201.922,5.284999999999997,6.171352983616676,1.1029332994275085
79.0,182.89999999999998,11706.0,207.33,202.063,5.267000000000024,6.157282358739698,1.1004186222146233
80.0,185.39999999999998,11856.0,207.104,202.04,5.064000000000021,5.926576336707943,1.05918724965292
81.0,187.89999999999998,12006.0,207.079,201.943,5.135999999999996,6.017468426372146,1.075431323296306
82.0,190.39999999999998,12156.0,206.849,201.86,4.988999999999976,5.851607915515781,1.0457890258990932
83.0,192.89999999999998,12306.0,207.046,201.687,5.3589999999999804,6.292348598047593,1.12455742181928
84.0,195.39999999999998,12456.0,207.064,201.65,5.413999999999987,6.363690750138294,1.1373075651675124
85.0,197.89999999999998,12606.0,206.982,201.851,5.131,6.0373898668220844,1.0789916479290291
86.0,200.39999999999998,12756.0,206.578,201.4,5.177999999999997,6.099023925245664,1.0900067779328857
87.0,202.89999999999998,12906.0,206.366,201.355,5.011000000000024,5.90838200028046,1.0559355899990108
88.0,205.39999999999998,13056.0,206.057,200.83,5.226999999999975,6.169321739145052,1.1025702790050858
89.0,207.89999999999998,13206.0,205.075,199.513,5.561999999999983,6.571305183207552,1.1744120497565067
90.0,210.39999999999998,13356.0,203.668,198.552,5.116000000000014,6.050370768668711,1.0813115717676514
91.0,212.89999999999998,13506.0,203.134,197.892,5.24199999999999,6.205466406601114,1.10902999009921
92.0,215.39999999999998,13656.0,202.505,197.026,5.478999999999985,6.49232000855002,1.1602959589216186
93.0,217.89999999999998,13806.0,201.777,196.479,5.297999999999973,6.283868826197458,1.1230419319793872
94.0,220.39999999999998,13956.0,201.423,196.299,5.123999999999995,6.083257997420499,1.087189119172982
95.0,222.89999999999998,14106.0,202.655,196.62,6.034999999999997,7.171530503177029,1.281683258243742
96.0,225.39999999999998,14256.0,203.158,197.183,5.974999999999994,7.106823528592819,1.2701189420940102
97.0,227.89999999999998,14406.0,203.533,197.479,6.053999999999974,7.207402090811102,1.2880941649946578
98.0,230.39999999999998,14556.0,203.17,197.124,6.045999999999992,7.204418567463998,1.287560954974444
99.0,232.89999999999998,14706.0,203.032,197.011,6.021000000000015,7.181079008441572,1.2833897502308287
100.0,235.39999999999998,14856.0,202.686,196.758,5.927999999999997,7.076450255579944,1.2646906844157613
101.0,237.89999999999998,15006.0,202.674,197.081,5.593000000000018,6.682427336100741,1.1942716045502997
102.0,240.39999999999998,15156.0,203.398,198.178,5.219999999999999,6.242206659118453,1.1155961431029877
103.0,242.89999999999998,15306.0,204.646,199.057,5.588999999999999,6.689229366244363,1.195487251357252
104.0,245.39999999999998,15456.0,203.998,198.633,5.364999999999981,6.426614342910921,1.1485531584714097
105.0,247.89999999999998,15606.0,203.857,198.011,5.846000000000004,7.008710554267077,1.252584364704415
106.0,250.39999999999998,15756.0,202.982,197.514,5.467999999999989,6.5610138831787586,1.172572806801795
107.0,252.89999999999998,15906.0,202.31,197.594,4.716000000000008,5.663381111855547,1.0121494641769224
108.0,255.39999999999998,16056.0,202.735,197.631,5.104000000000013,6.134351657393739,1.0963204877924266
109.0,257.90000000000003,16206.0,202.435,197.134,5.301000000000016,6.376294312860926,1.1395600516247153
110.0,260.40000000000003,16356.0,201.852,196.324,5.527999999999992,6.654688525263398,1.18931417329653
111.0,262.90000000000003,16506.0,200.812,195.685,5.1270000000000095,6.176875218693228,1.1039202235216845
112.0,265.40000000000003,16656.0,199.879,194.71,5.168999999999983,6.232389408788109,1.1138416214726585
113.0,267.90000000000003,16806.0,199.199,193.781,5.418000000000006,6.537720873516421,1.1684099212775543
114.0,270.40000000000003,16956.0,198.513,193.085,5.427999999999997,6.554859466289475,1.1714729002912179
115.0,272.90000000000003,17106.0,198.254,192.892,5.361999999999995,6.480125752132522,1.1581166229639575
116.0,275.40000000000003,17256.0,198.448,193.044,5.403999999999996,6.5358489455338855,1.1680753736165226
117.0,277.90000000000003,17406.0,198.966,193.914,5.052000000000021,6.1147269739289065,1.092813199043663
118.0,280.40000000000003,17556.0,200.219,194.696,5.522999999999996,6.6897965523312,1.1955886178523798
119.0,282.90000000000003,17706.0,200.437,195.147,5.2900000000000205,6.412314414827528,1.145997500594691
120.0,285.40000000000003,17856.0,200.221,194.989,5.231999999999999,6.34666136948421,1.134264104350755
121.0,287.90000000000003,18006.0,200.707,194.809,5.897999999999996,7.1597531961129475,1.2795784387377047
122.0,290.40000000000003,18156.0,200.377,194.72,5.657000000000011,6.872147054884973,1.2281779774252026
123.0,292.90000000000003,18306.0,200.573,194.895,5.677999999999997,6.902588376902883,1.2336183967013776
124.0,295.40000000000003,18456.0,200.329,194.696,5.63300000000001,6.852736793372561,1.2247090097888562
125.0,297.90000000000003,18606.0,200.612,195.073,5.538999999999987,6.743118893463235,1.2051182924300747
126.0,300.40000000000003,18756.0,200.78,195.396,5.3840000000000146,6.558992627344768,1.1722115715310386
127.0,302.90000000000003,18906.0,200.098,194.814,5.28400000000002,6.441619603597204,1.1512348721444776
128.0,305.40000000000003,19056.0,198.639,193.798,4.841000000000008,5.9056146385510875,1.0554410120011246
129.0,307.90000000000003,19206.0,198.481,193.535,4.945999999999998,6.037811030083694,1.0790669174828786
130.0,310.40000000000003,19356.0,197.994,193.221,4.772999999999996,5.830554956642982,1.0420264782934172
131.0,312.90000000000003,19506.0,198.341,193.204,5.1370000000000005,6.279409339608501,1.1222449404168613
132.0,315.40000000000003,19656.0,197.989,193.021,4.968000000000018,6.076861591440331,1.086045964799717
133.0,317.90000000000003,19806.0,197.974,193.106,4.867999999999995,5.958468628343207,1.0648869836550043
134.0,320.40000000000003,19956.0,197.531,191.988,5.543000000000006,6.789114585423095,1.2133385612151233
135.0,322.90000000000003,20106.0,196.279,191.411,4.867999999999995,5.966242282959887,1.0662762774707601
136.0,325.40000000000003,20256.0,195.665,190.7,4.965000000000003,6.089050114075869,1.0882242760259988
137.0,327.90000000000003,20406.0,195.499,190.081,5.418000000000006,6.648860767260289,1.1882726466848295
138.0,330.40000000000003,20556.0,195.54,190.043,5.496999999999986,6.750095519394428,1.2063651426876423
139.0,332.90000000000003,20706.0,195.019,190.126,4.893000000000001,6.012199459507758,1.0744896628494411
140.0,335.40000000000003,20856.0,194.867,189.868,4.998999999999995,6.146294427819298,1.0984548786180262
141.0,337.90000000000003,21006.0,195.259,190.227,5.031999999999982,6.190718100373745,1.1063941988729582
142.0,340.40000000000003,21156.0,196.783,191.516,5.266999999999996,6.483836208336373,1.158779749139718
143.0,342.90000000000003,21306.0,198.034,192.319,5.715000000000003,7.039656310076318,1.2581149354963586
144.0,345.40000000000003,21456.0,197.48,192.107,5.3729999999999905,6.622420989241013,1.183547376280698
145.0,347.90000000000003,21606.0,196.672,191.522,5.150000000000006,6.351410012222899,1.1351127733893742
146.0,350.40000000000003,21756.0,196.561,191.239,5.322000000000003,6.567484420450365,1.1737292097884637
147.0,352.90000000000003,21906.0,196.25,190.995,5.2549999999999955,6.488681843059322,1.159645752414363
148.0,355.40000000000003,22056.0,196.362,190.917,5.444999999999993,6.7272810605721,1.2022877829238492
149.0,357.90000000000003,22206.0,196.79,191.207,5.582999999999998,6.90185174851305,1.2334867477772913
150.0,360.40000000000003,22356.0,196.387,190.82,5.567000000000007,6.886109782605165,1.2306733714488993
151.0,362.90000000000003,22506.0,195.64,189.971,5.668999999999983,7.016367733373495,1.2539528422228081
152.0,365.40000000000003,22656.0,195.327,189.795,5.532000000000011,6.8507748388844805,1.2243583727498457
153.0,367.90000000000003,22806.0,195.009,189.365,5.643999999999977,6.993501393835205,1.24986621042914
154.0,370.40000000000003,22956.0,194.619,189.32,5.299000000000007,6.5697712472781955,1.1741379074379314
155.0,372.90000000000003,23106.0,194.665,189.56,5.10499999999999,6.332851449003575,1.1317960197668766
156.0,375.40000000000003,23256.0,194.962,189.718,5.244,6.508966682677769,1.1632710231042953
157.0,377.90000000000003,23406.0,194.57,189.559,5.010999999999996,6.2232635263987595,1.112210659898982
158.0,380.40000000000003,23556.0,194.197,189.301,4.896000000000015,6.0838466751635165,1.087294326618923
159.0,382.90000000000003,23706.0,194.513,189.2,5.313000000000017,6.60569312796045,1.1805578024735417
160.0,385.40000000000003,23856.0,194.318,189.334,4.984000000000009,6.200076236002699,1.108066668335187
161.0,387.90000000000003,24006.0,194.518,189.465,5.052999999999997,6.289374087857774,1.1240258226146083
162.0,390.40000000000003,24156.0,194.048,189.034,5.01400000000001,6.24425070006664,1.1159614504890885
163.0,392.90000000000003,24306.0,193.746,188.312,5.4339999999999975,6.77099155990829,1.2100996461215097
164.0,395.40000000000003,24456.0,193.946,188.097,5.8489999999999895,7.292050777430707,1.3032224286790424
165.0,397.90000000000003,24606.0,193.377,187.847,5.530000000000001,6.898067334714756,1.232810404030947
166.0,400.40000000000003,24756.0,192.852,187.507,5.344999999999999,6.670879203050391,1.1922077426190079
167.0,402.90000000000003,24906.0,192.629,187.466,5.1629999999999825,6.447174377233579,1.152227611472564
168.0,405.40000000000003,25056.0,193.001,187.619,5.382000000000005,6.724218044681314,1.2017403661367052
169.0,407.90000000000003,25206.0,194.288,188.259,6.029000000000025,7.536558596723446,1.3469204340571634
170.0,410.40000000000003,25356.0,194.592,188.579,6.013000000000005,7.520515703721566,1.3440532765703206
171.0,412.90000000000003,25506.0,194.1,188.404,5.695999999999998,7.127774682293746,1.2738632952592757
172.0,415.40000000000003,25656.0,193.645,187.975,5.670000000000016,7.098940983907683,1.2687101876376468
173.0,417.90000000000003,25806.0,192.886,187.727,5.158999999999992,6.462514653194393,1.1549691984834682
174.0,420.40000000000003,25956.0,192.446,187.109,5.336999999999989,6.688946505141736,1.1954366989208531
175.0,422.90000000000003,26106.0,192.473,187.027,5.446000000000026,6.829071878102667,1.220479657951652
176.0,425.40000000000003,26256.0,192.241,187.391,4.850000000000023,6.08482862522144,1.0874698189980063
177.0,427.90000000000003,26406.0,192.478,187.345,5.13300000000001,6.443168659104433,1.1515117166072915
178.0,430.40000000000003,26556.0,192.17,186.742,5.427999999999997,6.8169290322621245,1.218309510001453
179.0,432.90000000000003,26706.0,191.315,186.33,4.984999999999985,6.263742385922926,1.1194449701402815
180.0,435.40000000000003,26856.0,192.117,186.675,5.441999999999979,6.841418607278573,1.222686243571251
181.0,437.90000000000003,27006.0,192.974,187.639,5.3349999999999795,6.710271315195846,1.1992478312892467
182.0,440.40000000000003,27156.0,193.063,188.211,4.851999999999975,6.105814733195474,1.0912204191291917
183.0,442.90000000000003,27306.0,193.253,187.843,5.409999999999997,6.811400705413932,1.2173214971966146
184.0,445.40000000000003,27456.0,192.807,187.624,5.182999999999993,6.528837888798716,1.1668223699465134
185.0,447.90000000000003,27606.0,192.623,187.269,5.353999999999985,6.747575418338856,1.2059147546804272
186.0,450.40000000000003,27756.0,191.933,186.926,5.007000000000005,6.3133647980855425,1.1283133999509505
187.0,452.90000000000003,27906.0,191.376,186.308,5.068000000000012,6.39341705354604,1.1426201975812356
188.0,455.40000000000003,28056.0,191.13,186.25,4.8799999999999955,6.159261247290614,1.1007722856794186
189.0,457.90000000000003,28206.0,191.247,186.229,5.018000000000001,6.336524050387256,1.132452380596072
190.0,460.40000000000003,28356.0,190.774,186.173,4.600999999999999,5.812775615364833,1.0388489858392318
191.0,462.90000000000003,28506.0,191.342,186.49,4.852000000000004,6.132849311426178,1.0960519911759987
192.0,465.40000000000003,28656.0,191.476,186.481,4.9950000000000045,6.3166449415751345,1.1288996213988527
193.0,467.90000000000003,28806.0,191.232,186.338,4.8940000000000055,6.19189693591866,1.1066048782783473
194.0,470.40000000000003,28956.0,190.836,185.709,5.1270000000000095,6.4897979228228415,1.1598452162174013
195.0,472.90000000000003,29106.0,189.916,184.951,4.965000000000003,6.287739599183941,1.1237337096872335
196.0,475.40000000000003,29256.0,189.103,184.426,4.677000000000021,5.925833579955788,1.0590545054787492
197.0,477.90000000000003,29406.0,188.9,184.208,4.692000000000007,5.947661327518774,1.0629555219499551
198.0,480.40000000000003,29556.0,188.65,183.864,4.786000000000001,6.069689030711095,1.0847640974212927
199.0,482.90000000000003,29706.0,188.822,183.854,4.967999999999989,6.303477963495949,1.126546442344775
