"Frame","Time (aligned)","Time [ s]","Intensity Ch3-T2","background","Intensity (bg-subst)","bleach-Corrected","Normalized"
1.0,-100.43333333333332,0.0,237.421,232.359,5.061999999999983,5.061999999999983,1.1629296085278398
2.0,-97.96666666666667,148.0,231.544,227.158,4.386000000000024,4.400566451486087,1.0109737298947998
3.0,-95.46666666666667,298.0,228.125,224.504,3.6210000000000093,3.6449154280649387,0.8373725942071625
4.0,-92.96666666666667,448.0,227.061,223.84,3.2210000000000036,3.252729426431455,0.7472728878954819
5.0,-88.56666666666666,712.0,227.47,224.083,3.3870000000000005,3.431233613007099,0.7882819364563264
6.0,-87.83333333333333,756.0,225.771,221.774,3.9969999999999857,4.061879129769442,0.93316465947653
7.0,-85.33333333333333,906.0,227.093,222.577,4.515999999999991,4.603463450659185,1.057586714450281
8.0,-82.83333333333333,1056.0,224.742,220.665,4.076999999999998,4.168596298841686,0.9576815610277715
9.0,-80.33333333333333,1206.0,228.146,224.704,3.441999999999979,3.5298729548841776,0.810943060761849
10.0,-77.83333333333333,1356.0,228.12,224.016,4.104000000000013,4.221197178714292,0.9697659388702192
11.0,-75.33333333333333,1506.0,226.422,222.131,4.290999999999997,4.426374448295936,1.0169027863205142
12.0,-72.83333333333333,1656.0,224.216,219.934,4.282000000000011,4.429749714087855,1.0176782103675457
13.0,-70.33333333333333,1806.0,223.309,218.72,4.588999999999999,4.76074899244989,1.0937210513806945
14.0,-67.83333333333333,1956.0,221.829,217.789,4.0400000000000205,4.202864312467891,0.9655541978652565
15.0,-65.33333333333333,2106.0,222.533,219.0,3.532999999999987,3.685502925399305,0.8466970514150209
16.0,-62.833333333333336,2256.0,223.147,219.536,3.61099999999999,3.777046509004546,0.8677280162204889
17.0,-60.333333333333336,2406.0,221.816,218.817,2.9989999999999952,3.1452552284003468,0.722582068645549
18.0,-57.833333333333336,2556.0,220.241,216.991,3.25,3.4174367822105856,0.7851122914470189
19.0,-55.333333333333336,2706.0,218.742,214.62,4.121999999999986,4.345564390749173,0.9983377115303187
20.0,-52.833333333333336,2856.0,218.08,213.83,4.25,4.491918100893374,1.0319606002787567
21.0,-50.333333333333336,3006.0,218.531,214.08,4.450999999999993,4.7161657869685465,1.0834786314483882
22.0,-47.833333333333336,3156.0,218.433,213.939,4.494,4.773503285471701,1.096651186700905
23.0,-45.333333333333336,3306.0,218.184,213.58,4.603999999999985,4.902262061430977,1.1262318648757064
24.0,-42.833333333333336,3456.0,216.789,212.738,4.050999999999988,4.323795113909987,0.9933364992441612
25.0,-40.333333333333336,3606.0,217.217,212.627,4.590000000000003,4.9106846403649005,1.128166844413917
26.0,-37.833333333333336,3756.0,218.638,213.835,4.802999999999997,5.150548960944897,1.1832725971661675
27.0,-35.333333333333336,3906.0,217.265,213.286,3.978999999999985,4.276729248439727,0.9825237200054505
28.0,-32.833333333333336,4056.0,215.528,211.52,4.007999999999981,4.317655183904396,0.9919259290351944
29.0,-30.333333333333332,4206.0,214.979,210.42,4.559000000000026,4.922186094471088,1.130809156053824
30.0,-27.833333333333332,4356.0,214.839,210.564,4.275000000000006,4.625713640437018,1.0626984103191086
31.0,-25.333333333333332,4506.0,216.093,211.681,4.411999999999978,4.784301411809985,1.0991319178023302
32.0,-22.833333333333332,4656.0,217.669,213.022,4.64700000000002,5.049897242615973,1.1601491551681609
33.0,-20.333333333333332,4806.0,217.692,212.599,5.093000000000018,5.546219295969844,1.274172784407701
34.0,-17.833333333333332,4956.0,216.582,212.292,4.289999999999992,4.681456729312511,1.0755046703989406
35.0,-15.333333333333334,5106.0,215.31,210.874,4.436000000000007,4.850680813961305,1.1143817345068239
36.0,-12.833333333333334,5256.0,214.244,210.182,4.062000000000012,4.45067422843688,1.0224853493008819
37.0,-10.333333333333334,5406.0,213.63,209.26,4.3700000000000045,4.797660876274995,1.1022010835037201
38.0,-7.833333333333333,5556.0,213.765,208.893,4.871999999999986,5.359265951419604,1.2312226501147772
39.0,-5.333333333333333,5706.0,213.535,209.219,4.3160000000000025,4.756826214196847,1.0928198433644654
40.0,-2.8333333333333335,5856.0,212.912,208.848,4.063999999999993,4.487613708224172,1.0309717212424578
41.0,-0.3333333333333333,6006.0,212.074,208.011,4.063000000000017,4.494928629696631,1.0326522306783286
42.0,2.1666666666666665,6156.0,212.725,208.685,4.039999999999992,4.477752053611162,1.0287061325149698
43.0,4.666666666666667,6306.0,213.273,209.17,4.103000000000009,4.555872589435936,1.0466533241674174
44.0,7.166666666666667,6456.0,213.096,208.614,4.481999999999999,4.985654138548948,1.1453901255626138
45.0,9.666666666666666,6606.0,212.643,208.037,4.6059999999999945,5.132672131879853,1.1791656248575286
46.0,12.166666666666666,6756.0,211.84,207.307,4.5330000000000155,5.060155196046964,1.162505788468793
47.0,14.666666666666666,6906.0,211.506,206.753,4.753000000000014,5.314885045997279,1.221026706027678
48.0,17.166666666666668,7056.0,210.913,206.129,4.78400000000002,5.358642312191617,1.2310793769967872
49.0,19.666666666666668,7206.0,210.59,205.758,4.831999999999994,5.421479608531256,1.245515440298487
50.0,22.166666666666668,7356.0,210.302,205.628,4.674000000000007,5.25287247545034,1.2067801129044151
51.0,24.666666666666668,7506.0,209.778,205.4,4.377999999999986,4.928233369904554,1.1321984400626153
52.0,27.166666666666668,7656.0,209.47,205.023,4.447000000000003,5.013953196786465,1.1518914714175847
53.0,29.666666666666668,7806.0,209.069,204.912,4.156999999999982,4.694412566706904,1.078481107955087
54.0,32.166666666666664,7956.0,208.738,204.652,4.086000000000013,4.621450283993908,1.0617189588296971
55.0,34.666666666666664,8106.0,208.559,204.26,4.299000000000007,4.8698639761051945,1.1187888200940066
56.0,37.166666666666664,8256.0,207.806,203.574,4.231999999999999,4.801262328932034,1.103028471083448
57.0,39.666666666666664,8406.0,207.383,203.25,4.13300000000001,4.69598451971279,1.0788422440067975
58.0,42.166666666666664,8556.0,207.477,202.969,4.50800000000001,5.1296516278959094,1.1784717027880691
59.0,44.666666666666664,8706.0,207.464,202.732,4.731999999999999,5.39240872632769,1.238836777781586
60.0,47.166666666666664,8856.0,206.696,202.331,4.365000000000009,4.981360311063444,1.1444036737418308
61.0,49.666666666666664,9006.0,206.304,201.794,4.509999999999991,5.154156211951897,1.184101316842468
62.0,52.166666666666664,9156.0,206.449,202.171,4.27800000000002,4.895882346541926,1.1247662071636473
63.0,54.666666666666664,9306.0,207.362,203.115,4.246999999999986,4.867137142514333,1.1181623650326988
64.0,57.166666666666664,9456.0,207.544,203.131,4.413000000000011,5.064289141848823,1.1634555095223351
65.0,59.666666666666664,9606.0,206.661,202.399,4.2620000000000005,4.897602184756744,1.12516131794632
66.0,62.166666666666664,9756.0,206.676,201.941,4.734999999999985,5.4483867212797294,1.251697004521165
67.0,64.66666666666667,9906.0,206.11,201.506,4.604000000000013,5.304612451522675,1.2186667091349643
68.0,67.16666666666667,10056.0,205.118,201.214,3.9039999999999964,4.5039256246441495,1.0347191749320317
69.0,69.66666666666667,10206.0,204.702,200.268,4.4339999999999975,5.121921620576545,1.1766958326999961
70.0,72.16666666666667,10356.0,203.996,199.447,4.549000000000007,5.261407321163237,1.2087408842959093
71.0,74.66666666666667,10506.0,204.122,199.464,4.6580000000000155,5.394202628309077,1.2392489037651797
72.0,77.16666666666667,10656.0,204.608,199.988,4.6200000000000045,5.356790861915323,1.2306540300301694
73.0,79.66666666666667,10806.0,204.13,199.627,4.502999999999986,5.227486102484293,1.200947919151877
74.0,82.16666666666667,10956.0,203.606,198.924,4.681999999999988,5.441817516191913,1.2501878138650777
75.0,84.66666666666667,11106.0,203.031,198.67,4.361000000000018,5.074739979981158,1.1658564556104474
76.0,87.16666666666667,11256.0,202.619,198.131,4.4879999999999995,5.228647134124496,1.2012146512875606
77.0,89.66666666666667,11406.0,202.693,197.916,4.777000000000015,5.571783743056704,1.280045888406704
78.0,92.16666666666667,11556.0,202.287,197.83,4.456999999999994,5.20448822099896,1.1956644506981615
79.0,94.66666666666667,11706.0,202.242,197.591,4.650999999999982,5.4371597209983085,1.2491177451291826
80.0,97.16666666666667,11856.0,202.062,197.568,4.494,5.259485398334396,1.2082993471637553
81.0,99.66666666666667,12006.0,202.052,197.421,4.631,5.425797562797786,1.2465074349379213
82.0,102.16666666666667,12156.0,201.835,197.38,4.4550000000000125,5.225278264907397,1.200440696771594
83.0,104.66666666666667,12306.0,201.859,197.177,4.682000000000016,5.497439099843075,1.262966159677236
84.0,107.16666666666667,12456.0,201.365,197.242,4.123000000000019,4.846231430147832,1.1133595456138188
85.0,109.66666666666667,12606.0,201.084,196.878,4.206000000000017,4.948988848149248,1.1369667451179115
86.0,112.16666666666667,12756.0,200.355,195.888,4.4669999999999845,5.261556561234511,1.2087751702891263
87.0,114.66666666666667,12906.0,200.256,195.862,4.3940000000000055,5.180888147921023,1.1902426364457408
88.0,117.16666666666667,13056.0,200.146,195.732,4.413999999999987,5.2097543823581995,1.1968742837617619
89.0,119.66666666666667,13206.0,200.034,195.645,4.388999999999982,5.185447401851476,1.1912900665896602
90.0,122.16666666666667,13356.0,200.138,195.417,4.721000000000004,5.583229163190956,1.2826753269598772
91.0,124.66666666666667,13506.0,199.582,194.972,4.609999999999985,5.457306397258889,1.2537461857330652
92.0,127.16666666666667,13656.0,199.12,194.589,4.531000000000006,5.368991049231659,1.233456866667813
93.0,129.66666666666666,13806.0,199.499,194.4,5.0989999999999895,6.047838268173072,1.3894133128499055
94.0,132.16666666666666,13956.0,200.102,194.801,5.301000000000016,6.293393958689733,1.445826584885529
95.0,134.66666666666666,14106.0,200.009,195.43,4.578999999999979,5.441331926105631,1.2500762557676963
96.0,137.16666666666666,14256.0,200.836,196.491,4.344999999999999,5.168058281462062,1.1872951390971465
97.0,139.66666666666666,14406.0,201.376,196.65,4.725999999999999,5.62639284459422,1.2925916294325992
98.0,142.16666666666666,14556.0,200.91,196.026,4.883999999999986,5.819778412751259,1.3370194846423582
99.0,144.66666666666666,14706.0,200.02,195.358,4.662000000000006,5.560237558105725,1.2773933004286258
100.0,147.16666666666666,14856.0,199.961,195.003,4.958000000000027,5.918529076782316,1.3597061837856812
101.0,149.66666666666666,15006.0,199.791,194.984,4.806999999999988,5.743327052500639,1.3194557646803522
102.0,152.16666666666666,15156.0,200.886,195.639,5.246999999999986,6.2744939349414635,1.4414845467150939
103.0,154.66666666666666,15306.0,200.528,195.533,4.9950000000000045,5.978296776595211,1.3734370466355468
104.0,157.16666666666666,15456.0,199.577,194.726,4.850999999999999,5.810905158893007,1.3349809683176357
105.0,159.66666666666666,15606.0,199.025,194.263,4.7620000000000005,5.709113865791961,1.3115957236243243
106.0,162.16666666666666,15756.0,198.678,193.847,4.830999999999989,5.796682163430243,1.3317134174394047
107.0,164.66666666666666,15906.0,198.162,193.426,4.736000000000018,5.687398843458,1.3066069756152356
108.0,167.16666666666666,16056.0,198.096,193.171,4.925000000000011,5.9192166756787135,1.3598641508175682
109.0,169.66666666666666,16206.0,198.239,192.943,5.295999999999992,6.370280075629374,1.463490184623546
110.0,172.16666666666666,16356.0,198.833,194.052,4.781000000000006,5.755438827656367,1.3222382897574814
111.0,174.66666666666666,16506.0,199.142,193.952,5.189999999999998,6.252775967430813,1.4364951220894162
112.0,177.16666666666666,16656.0,198.409,193.003,5.406000000000006,6.518146090909009,1.4974605060901043
113.0,179.66666666666666,16806.0,198.269,193.193,5.075999999999993,6.125040818377496,1.4071496090740427
114.0,182.16666666666666,16956.0,198.742,193.958,4.783999999999992,5.777164275373767,1.3272294328647685
115.0,184.66666666666666,17106.0,198.372,193.243,5.129000000000019,6.198538788267038,1.4240348254610906
116.0,187.16666666666666,17256.0,197.622,192.876,4.746000000000009,5.740033141284956,1.3186990308042992
117.0,189.66666666666666,17406.0,197.74,192.602,5.138000000000005,6.218817733975974,1.4286936532751267
118.0,192.16666666666666,17556.0,198.083,192.658,5.425000000000011,6.571092937967927,1.509624365458538
119.0,194.66666666666666,17706.0,199.297,194.116,5.180999999999983,6.280189221780943,1.4427929658566763
120.0,197.16666666666666,17856.0,198.593,193.661,4.931999999999988,5.9827473001330365,1.3744594973656115
121.0,199.66666666666666,18006.0,197.835,192.894,4.9410000000000025,5.998023150558513,1.3779689281746257
122.0,202.16666666666666,18156.0,196.999,192.314,4.685000000000002,5.691357424807505,1.307516408933905
123.0,204.66666666666666,18306.0,197.043,192.256,4.787000000000006,5.8194241916580065,1.336938106887062
124.0,207.16666666666666,18456.0,197.233,192.494,4.739000000000004,5.765155274949856,1.3244705189647705
125.0,209.66666666666666,18606.0,197.224,192.455,4.768999999999977,5.805729193523396,1.3337918566263998
126.0,212.16666666666666,18756.0,197.002,191.88,5.122000000000014,6.239814308554959,1.4335173471225318
127.0,214.66666666666666,18906.0,197.196,192.062,5.133999999999986,6.258757578513972,1.4378693205554973
128.0,217.16666666666666,19056.0,196.81,191.644,5.165999999999997,6.3020874246549985,1.4478237972465988
129.0,219.66666666666666,19206.0,196.407,191.072,5.335000000000008,6.512681327435619,1.4962050467367247
130.0,222.16666666666666,19356.0,196.198,190.792,5.406000000000006,6.603808945236124,1.5171404487309597
131.0,224.66666666666666,19506.0,196.188,191.054,5.133999999999986,6.275742174333259,1.4417713137137604
132.0,227.16666666666666,19656.0,195.503,190.326,5.1769999999999925,6.332510559357173,1.4548131224400778
133.0,229.66666666666666,19806.0,194.912,189.865,5.046999999999997,6.177565975194777,1.4192165905152485
134.0,232.16666666666666,19956.0,195.017,189.589,5.427999999999997,6.64826158572551,1.52735287303012
135.0,234.66666666666666,20106.0,194.761,189.554,5.206999999999994,6.381722179000025,1.4661188611928007
136.0,237.16666666666666,20256.0,194.709,189.725,4.984000000000009,6.112351615015944,1.404234427268871
137.0,239.66666666666666,20406.0,194.777,189.641,5.135999999999996,6.302796031865776,1.4479865906694018
138.0,242.16666666666666,20556.0,195.861,190.843,5.018000000000001,6.161902731730277,1.4156181611216399
139.0,244.66666666666666,20706.0,196.14,190.767,5.3729999999999905,6.6019921716605605,1.5167230682918025
140.0,247.16666666666666,20856.0,195.329,190.349,4.980000000000018,6.122933836875425,1.406665557084043
141.0,249.66666666666666,21006.0,194.916,189.861,5.055000000000007,6.219014307907281,1.4287388136158974
142.0,252.16666666666666,21156.0,195.214,189.861,5.353000000000009,6.589704807902922,1.5139002039843132
143.0,254.66666666666666,21306.0,196.32,190.956,5.364000000000004,6.607299465835412,1.5179423510924943
144.0,257.1666666666667,21456.0,195.73,190.408,5.322000000000003,6.559561605200214,1.5069751895791699
145.0,259.6666666666667,21606.0,195.045,189.739,5.305999999999983,6.543802237835837,1.503354676951809
146.0,262.1666666666667,21756.0,194.422,189.078,5.343999999999994,6.594632984383068,1.5150323893546833
147.0,264.6666666666667,21906.0,193.884,188.611,5.272999999999996,6.51090758486238,1.495797552118723
148.0,267.1666666666667,22056.0,193.425,188.268,5.157000000000011,6.3714579300955805,1.4637607815878464
149.0,269.6666666666667,22206.0,193.499,188.407,5.0919999999999845,6.29486460745627,1.446164447586902
150.0,272.1666666666667,22356.0,194.384,188.875,5.508999999999986,6.814366587456747,1.5655133678222624
151.0,274.6666666666667,22506.0,194.33,188.758,5.572000000000003,6.896313460990871,1.5843396115123296
152.0,277.1666666666667,22656.0,193.443,187.946,5.497000000000014,6.807431180287059,1.5639200469323322
153.0,279.6666666666667,22806.0,193.376,187.721,5.655000000000001,7.00713153475164,1.6097986433448899
154.0,282.1666666666667,22956.0,192.729,187.906,4.8230000000000075,5.979620065224146,1.3737410552343647
155.0,284.6666666666667,23106.0,193.093,187.957,5.135999999999996,6.371307549869227,1.463726233658616
156.0,287.1666666666667,23256.0,193.138,187.855,5.2830000000000155,6.557374329631341,1.506472691056639
157.0,289.6666666666667,23406.0,193.415,188.433,4.981999999999999,6.1872478324722895,1.4214408731097883
158.0,292.1666666666667,23556.0,194.04,188.633,5.406999999999982,6.718823319568816,1.5435635268261378
159.0,294.6666666666667,23706.0,193.566,188.528,5.038000000000011,6.263783545767874,1.439023972102525
160.0,297.1666666666667,23856.0,193.138,188.255,4.88300000000001,6.074432636517092,1.3955230280548359
161.0,299.6666666666667,24006.0,193.259,187.845,5.413999999999987,6.738703999933095,1.5481308582827356
162.0,302.1666666666667,24156.0,193.262,187.87,5.391999999999996,6.714997960661993,1.5426846996558514
163.0,304.6666666666667,24306.0,193.422,188.019,5.402999999999992,6.732364261719627,1.5466743846994173
164.0,307.1666666666667,24456.0,193.547,188.29,5.257000000000005,6.553994005292072,1.505696104873201
165.0,309.6666666666667,24606.0,192.945,187.519,5.425999999999988,6.76833876277797,1.5549390651484025
166.0,312.1666666666667,24756.0,192.699,187.411,5.288000000000011,6.599739799014134,1.5162056145502047
167.0,314.6666666666667,24906.0,193.177,187.494,5.682999999999993,7.096512102618344,1.6303326830128515
168.0,317.1666666666667,25056.0,193.744,187.885,5.859000000000009,7.320177169042706,1.681716864786506
169.0,319.6666666666667,25206.0,193.582,188.21,5.371999999999986,6.715274967921393,1.5427483385226497
170.0,322.1666666666667,25356.0,192.591,187.312,5.278999999999996,6.6024949941703115,1.5168385853175677
171.0,324.6666666666667,25506.0,191.432,186.364,5.067999999999984,6.341917501731847,1.4569742468599163
172.0,327.1666666666667,25656.0,191.176,185.877,5.298999999999978,6.634442376318616,1.5241780868219568
173.0,329.6666666666667,25806.0,191.37,185.759,5.611000000000018,7.02872062784918,1.6147584607262397
174.0,332.1666666666667,25956.0,191.761,186.289,5.472000000000008,6.858144140179073,1.575570699361117
175.0,334.6666666666667,26106.0,191.844,186.294,5.549999999999983,6.959483827298844,1.5988521933695188
176.0,337.1666666666667,26256.0,191.452,186.339,5.1129999999999995,6.414789435207644,1.4737156394062767
177.0,339.6666666666667,26406.0,192.017,186.49,5.526999999999987,6.937734887759604,1.5938556533173132
178.0,342.1666666666667,26556.0,191.167,186.298,4.869,6.114890836050902,1.4048177807505282
179.0,344.6666666666667,26706.0,191.257,186.174,5.082999999999998,6.386881152988229,1.4673040693319763
180.0,347.1666666666667,26856.0,191.193,186.034,5.15900000000002,6.485644725275714,1.4899937339817384
181.0,349.6666666666667,27006.0,191.175,185.776,5.399000000000001,6.790769415321933,1.5600922200243361
182.0,352.1666666666667,27156.0,191.777,186.464,5.312999999999988,6.685942637565467,1.5360096116443356
183.0,354.6666666666667,27306.0,192.474,187.121,5.35299999999998,6.739635485412323,1.548344855130564
184.0,357.1666666666667,27456.0,192.401,187.162,5.239000000000004,6.599379066065318,1.5161227407795708
185.0,359.6666666666667,27606.0,192.249,186.761,5.4879999999999995,6.916453846814297,1.588966606968915
186.0,362.1666666666667,27756.0,192.722,187.107,5.615000000000009,7.079996672907997,1.6265384747537204
187.0,364.6666666666667,27906.0,192.192,186.983,5.209000000000003,6.571292310955261,1.509670168846549
188.0,367.1666666666667,28056.0,191.226,185.894,5.331999999999994,6.729750198883923,1.5460738372734606
189.0,369.6666666666667,28206.0,190.659,185.353,5.305999999999983,6.700198607284709,1.5392847379352843
190.0,372.1666666666667,28356.0,190.312,184.958,5.354000000000013,6.764094902122017,1.5539640925661675
191.0,374.6666666666667,28506.0,189.754,184.543,5.210999999999984,6.586619489250142,1.5131913915755697
192.0,377.1666666666667,28656.0,189.803,184.392,5.411000000000001,6.84271587164425,1.5720262524453794
193.0,379.6666666666667,28806.0,189.775,184.123,5.652000000000015,7.15091979603848,1.6428321531056966
194.0,382.1666666666667,28956.0,189.428,184.041,5.3870000000000005,6.818908018382404,1.566556703359309
