"Frame","Time (aligned)","Time [ s]","Intensity Ch3-T2","background","Intensity (bg-subst)","bleach-Corrected","Normalized"
1.0,-12.3333333333333,0.0,268.084,252.453,15.631,15.631,1.03241395464161
2.0,-9.33333333333333,180.0,263.595,248.66,14.935,14.9846009924634,0.989719862411597
3.0,-6.33333333333333,360.0,261.124,246.423,14.701,14.7980949207353,0.977401298591147
4.0,-3.33333333333333,540.0,260.309,245.496,14.813,14.9589198987051,0.98802364850548
5.0,-0.333333333333333,720.0,260.203,245.072,15.131,15.3286081483349,1.01244123585017
6.0,3.21666666666667,933.0,275.279,260.189,15.09,15.3349402222219,1.01285946382296
7.0,6.21666666666667,1113.0,274.029,258.382,15.647,15.9500426511214,1.05348644425479
8.0,9.21666666666667,1293.0,272.076,255.989,16.087,16.4484200783582,1.08640383985056
9.0,12.2166666666667,1473.0,264.698,250.526,14.172,14.5338057863506,0.959945231135518
10.0,15.2166666666667,1653.0,263.823,249.55,14.273,14.6805914551142,0.969640296887739
11.0,18.2166666666667,1833.0,265.091,251.484,13.607,14.0362799156287,0.92708408010689
12.0,21.2166666666667,2013.0,264.329,252.522,11.807,12.2143986161222,0.806750404890262
13.0,24.2166666666667,2193.0,260.323,251.436,8.88699999999997,9.21960695051254,0.608947020153534
14.0,27.2166666666667,2373.0,254.213,249.332,4.881,5.07776750226626,0.335382127040198
15.0,30.2166666666667,2553.0,251.078,247.667,3.411,3.5582367615446,0.235018443256184
16.0,33.2166666666667,2733.0,247.778,245.919,1.85899999999998,1.94448337309316,0.128431435541549
17.0,36.2166666666667,2913.0,250.522,249.117,1.405,1.4735190383136,0.0973246508595128
18.0,39.2166666666667,3093.0,250.658,248.457,2.20099999999999,2.31439334081399,0.152863667173308
19.0,42.2166666666667,3273.0,247.627,245.987,1.64000000000001,1.72894847181677,0.114195542777808
20.0,45.2166666666667,3453.0,246.023,244.09,1.93299999999999,2.04303004447691,0.134940357473611
21.0,48.2166666666667,3633.0,248.005,245.961,2.04399999999998,2.16577013447846,0.143047233662696
22.0,51.2166666666667,3813.0,245.62,242.842,2.77799999999999,2.95077706431694,0.194896258603877
23.0,54.2166666666667,3993.0,244.738,242.893,1.845,1.96452508760647,0.129755173353493
24.0,57.2166666666667,4173.0,247.121,244.54,2.58100000000002,2.75480503307869,0.181952476390978
25.0,60.2166666666667,4353.0,246.554,245.104,1.44999999999999,1.55130560534402,0.102462385955531
26.0,63.2166666666667,4533.0,248.166,245.629,2.53700000000001,2.72057936995987,0.179691901110398
27.0,66.2166666666667,4713.0,245.027,242.862,2.16499999999999,2.32699643701232,0.153696090715425
28.0,69.2166666666667,4893.0,244.865,242.52,2.345,2.52617300555286,0.166851529829934
29.0,72.2166666666667,5073.0,245.56,243.413,2.14699999999999,2.31803762773181,0.153104369154542
30.0,75.2166666666667,5253.0,242.757,240.74,2.017,2.18247120766349,0.144150325020492
31.0,78.2166666666667,5433.0,242.489,240.493,1.99600000000001,2.16443010380164,0.142958725802008
32.0,81.2166666666667,5613.0,240.644,238.449,2.19499999999999,2.38530760652937,0.157547492744782
33.0,84.2166666666667,5793.0,240.69,238.205,2.48499999999999,2.706136844784,0.178737984884192
34.0,87.2166666666667,5973.0,241.041,238.983,2.05799999999999,2.24578973168418,0.148332458459572
35.0,90.2166666666667,6153.0,240.337,238.841,1.49599999999998,1.63584727179576,0.108046289492953
36.0,93.2166666666667,6333.0,239.157,237.524,1.63300000000001,1.78925431192453,0.118178691064778
37.0,96.2166666666667,6513.0,238.239,237.248,0.991000000000014,1.0879821346427,0.0718602737000757
38.0,99.2166666666667,6693.0,238.114,236.115,1.999,2.19892706011654,0.145237219762226
39.0,102.216666666667,6873.0,237.92,235.708,2.21199999999999,2.43792854165972,0.161023059742087
40.0,105.216666666667,7053.0,236.785,235.011,1.774,1.95891405472188,0.129384569511767
41.0,108.216666666667,7233.0,234.698,232.576,2.12200000000001,2.34758517160135,0.155055958727589
42.0,111.216666666667,7413.0,235.224,233.787,1.43699999999998,1.59270537154435,0.105196804504832
43.0,114.216666666667,7593.0,235.297,233.185,2.11199999999999,2.34511404067479,0.154892742679202
44.0,117.216666666667,7773.0,235.026,232.934,2.09200000000001,2.3270835470425,0.153701844257153
45.0,120.216666666667,7953.0,232.849,231.288,1.56099999999998,1.73949222706564,0.114891948641365
46.0,123.216666666667,8133.0,234.883,233.368,1.51500000000001,1.69118356982378,0.11170120384791
47.0,126.216666666667,8313.0,234.571,232.977,1.59399999999999,1.78243777894374,0.117728464990206
48.0,129.216666666667,8493.0,232.267,230.835,1.43199999999999,1.60400831752891,0.105943354256161
49.0,132.216666666667,8673.0,234.754,233.105,1.649,1.85016967600746,0.122202097880164
50.0,135.216666666667,8853.0,232.129,230.767,1.36199999999999,1.53068299348809,0.101100280379354
51.0,138.216666666667,9033.0,233.906,232.12,1.786,2.0104670622772,0.132789600821591
52.0,141.216666666667,9213.0,232.988,231.727,1.261,1.42176635510405,0.0939064311463984
53.0,144.216666666667,9393.0,231.454,230.05,1.404,1.58550763619353,0.104721400345277
54.0,147.216666666667,9573.0,231.287,230.127,1.16,1.3120123175313,0.0866572724253721
55.0,150.216666666667,9753.0,230.51,229.233,1.27699999999999,1.44657276052251,0.0955448726484465
56.0,153.216666666667,9933.0,232.413,231.038,1.375,1.55995645138978,0.103033766812617
57.0,156.216666666667,10113.0,232.984,231.294,1.69,1.92020659044631,0.126827975162916
58.0,159.216666666667,10293.0,230.584,228.876,1.708,1.94353260435807,0.128368638093546
59.0,162.216666666667,10473.0,230.257,228.358,1.899,2.16402877668983,0.142932218495335
60.0,165.216666666667,10653.0,229.721,227.939,1.78200000000001,2.03362750843416,0.134319328146022
61.0,168.216666666667,10833.0,230.778,229.545,1.233,1.40910745218109,0.0930703216186577
62.0,171.216666666667,11013.0,228.617,227.582,1.035,1.18448766448594,0.078234380008709
63.0,174.216666666667,11193.0,230.885,229.238,1.64699999999999,1.88749114050414,0.124667148149119
64.0,177.216666666667,11373.0,228.857,226.992,1.86500000000001,2.14024456142037,0.141361291763559
65.0,180.216666666667,11553.0,230.367,227.895,2.47199999999998,2.84065523245391,0.187622807389874
66.0,183.216666666667,11733.0,229.405,227.801,1.60400000000001,1.84566257675455,0.121904407894644
67.0,186.216666666667,11913.0,229.299,227.403,1.89600000000002,2.18452328585731,0.144285863000359
68.0,189.216666666667,12093.0,226.324,225.34,0.984000000000009,1.13521076194925,0.0749796834556804
69.0,192.216666666667,12273.0,229.417,227.534,1.88300000000001,2.17514172565306,0.143666219108659
70.0,195.216666666667,12453.0,226.326,224.831,1.495,1.72912814797517,0.114207410231793
71.0,198.216666666667,12633.0,227.913,226.045,1.86800000000002,2.16323969722659,0.142880100483105
72.0,201.216666666667,12813.0,225.935,224.197,1.738,2.01517370519671,0.133100470492734
73.0,204.216666666667,12993.0,227.345,226.031,1.31399999999999,1.52540900259035,0.100751937867712
74.0,207.216666666667,13173.0,224.948,223.843,1.10500000000002,1.28432472349256,0.0848285309209228
75.0,210.216666666667,13353.0,225.473,223.619,1.85400000000001,2.15743359846024,0.142496612709552
76.0,213.216666666667,13533.0,225.722,223.208,2.51400000000001,2.92888121550558,0.193450056834216
77.0,216.216666666667,13713.0,226.257,225.209,1.048,1.22236327459146,0.0807360311131492
78.0,219.216666666667,13893.0,224.267,222.583,1.684,1.9664254350824,0.129880689651414
79.0,222.216666666667,14073.0,223.892,222.602,1.28999999999999,1.50804903033494,0.0996053267994072
80.0,225.216666666667,14253.0,225.43,224.312,1.118,1.30843450719578,0.0864209611645791
81.0,228.216666666667,14433.0,225.623,224.085,1.53799999999998,1.80195997658884,0.119017889164863
82.0,231.216666666667,14613.0,222.465,221.661,0.804000000000002,0.943013181814938,0.0622852004552955
83.0,234.216666666667,14793.0,225.211,223.523,1.68800000000002,1.98199000438598,0.130908715916337
84.0,237.216666666667,14973.0,222.699,220.657,2.042,2.40019514440015,0.158530801672429
85.0,240.216666666667,15153.0,222.415,220.652,1.76300000000001,2.07443350910298,0.137014528998405
86.0,243.216666666667,15333.0,224.078,222.061,2.017,2.37576887933961,0.156917468110387
87.0,246.216666666667,15513.0,223.116,222.084,1.03200000000001,1.2168130561344,0.0803694440114678
88.0,249.216666666667,15693.0,223.089,221.752,1.33699999999999,1.5780338942485,0.104227766190237
89.0,252.216666666667,15873.0,222.678,221.079,1.59899999999999,1.8891616303396,0.12477748254981
90.0,255.216666666667,16053.0,222.198,221.265,0.933000000000021,1.10340029850821,0.0728786300131529
91.0,258.216666666667,16233.0,219.86,218.893,0.967000000000013,1.14473216619294,0.0756085639245539
92.0,261.216666666667,16413.0,222.119,220.843,1.27600000000001,1.51199129967328,0.0998657102603414
93.0,264.216666666667,16593.0,222.338,219.882,2.45599999999999,2.91302035431124,0.192402460747615
94.0,267.216666666667,16773.0,221.531,220.095,1.43600000000001,1.70483186656828,0.11260266197702
95.0,270.216666666667,16953.0,219.588,217.35,2.238,2.65946731832812,0.175655503253486
96.0,273.216666666667,17133.0,218.297,216.735,1.56199999999998,1.85788424295596,0.122711638317222
97.0,276.216666666667,17313.0,218.835,217.305,1.53,1.82149408637943,0.12030810012637
98.0,279.216666666667,17493.0,218.533,216.994,1.53899999999999,1.83387366446031,0.121125760491239
99.0,282.216666666667,17673.0,218.009,216.228,1.78099999999998,2.12414909716563,0.140298200348869
100.0,285.216666666667,17853.0,220.014,218.596,1.41800000000001,1.69271364075783,0.111802263702296
101.0,288.216666666667,18033.0,219.446,218.775,0.670999999999992,0.801700114879945,0.0529515952939565
102.0,291.216666666667,18213.0,217.739,216.293,1.446,1.72916299407764,0.114209711786553
103.0,294.216666666667,18393.0,220.043,218.637,1.40600000000001,1.68277983341199,0.11114614436722
104.0,297.216666666667,18573.0,217.812,216.548,1.26400000000001,1.51411752645657,0.100006145690051
105.0,300.216666666667,18753.0,220.754,218.329,2.42499999999998,2.90730808999274,0.192025170657727
106.0,303.216666666667,18933.0,217.312,216.362,0.950000000000017,1.1398981691697,0.0752892826256299
107.0,306.216666666667,19113.0,219.757,217.877,1.88,2.25766677062943,0.149116926551626
108.0,309.216666666667,19293.0,217.596,215.657,1.93899999999999,2.33042865667837,0.15392278583913
109.0,312.216666666667,19473.0,219.115,217.391,1.72400000000002,2.07370899742922,0.136966675632511
110.0,315.216666666667,19653.0,218.833,217.78,1.053,1.26761704361475,0.0837250031968145
111.0,318.216666666667,19833.0,219.328,217.476,1.852,2.23124105812753,0.14737153122514
112.0,321.216666666667,20013.0,219.223,217.802,1.42100000000002,1.71333436832812,0.113164244823045
113.0,324.216666666667,20193.0,216.913,215.164,1.74900000000002,2.11046028198235,0.139394066012119
114.0,327.216666666667,20373.0,218.227,217.057,1.17000000000002,1.41289343691208,0.0933203826172078
115.0,330.216666666667,20553.0,216.002,214.66,1.34200000000001,1.62184422964602,0.107121400738373
116.0,333.216666666667,20733.0,216.612,214.05,2.56199999999998,3.0986019612246,0.204659964471123
117.0,336.216666666667,20913.0,217.516,216.147,1.369,1.65697965702863,0.109442065157291
118.0,339.216666666667,21093.0,218.043,216.305,1.738,2.10517226289184,0.139044796950546
119.0,342.216666666667,21273.0,215.953,214.069,1.88400000000001,2.28370517155673,0.150836740285482
120.0,345.216666666667,21453.0,215.287,214.018,1.26900000000001,1.53935651335541,0.101673158822633
121.0,348.216666666667,21633.0,214.921,213.86,1.06099999999998,1.28797866074528,0.0850698702983839
122.0,351.216666666667,21813.0,215.729,214.146,1.58300000000003,1.9230349633875,0.127014786735651
123.0,354.216666666667,21993.0,217.006,215.797,1.209,1.46974803587101,0.0970755794280805
124.0,357.216666666667,22173.0,214.9,213.792,1.108,1.34791982372747,0.0890289319783948
125.0,360.216666666667,22353.0,214.718,212.944,1.774,2.15964847752371,0.142642903545261
126.0,363.216666666667,22533.0,217.348,215.188,2.16000000000002,2.63139377322898,0.173801270017186
127.0,366.216666666667,22713.0,216.637,215.253,1.38400000000001,1.68720695143425,0.111438551662021
128.0,369.216666666667,22893.0,213.81,212.627,1.18299999999999,1.44316094141828,0.0953195249641064
129.0,372.216666666667,23073.0,215.605,214.412,1.19299999999998,1.45635029496356,0.096190670294082
130.0,375.216666666667,23253.0,212.973,212.213,0.760000000000019,0.928393414424635,0.0613195775349857
131.0,378.216666666667,23433.0,213.153,211.751,1.40199999999999,1.71378857195465,0.113194244577525
132.0,381.216666666667,23613.0,212.735,211.071,1.66400000000002,2.03540613690756,0.134436805009694
133.0,384.216666666667,23793.0,212.941,211.648,1.29300000000001,1.5826417289334,0.104532109663423
134.0,387.216666666667,23973.0,214.298,212.828,1.47,1.80046877874291,0.118919396844137
135.0,390.216666666667,24153.0,214.306,212.473,1.833,2.24653288920819,0.148381543367658
136.0,393.216666666667,24333.0,214.256,212.742,1.51400000000001,1.8567617064876,0.122637495759834
137.0,396.216666666667,24513.0,213.469,211.955,1.51399999999998,1.85795038789811,0.12271600713312
138.0,399.216666666667,24693.0,214.029,211.835,2.19399999999999,2.69414400028221,0.177945867935853
139.0,402.216666666667,24873.0,212.937,211.399,1.53800000000001,1.88979414852299,0.124819259825679
140.0,405.216666666667,25053.0,210.784,208.837,1.947,2.39384581935671,0.158111434275756
141.0,408.216666666667,25233.0,212.219,211.161,1.05799999999999,1.30162554654122,0.0859712352355677
142.0,411.216666666667,25413.0,212.055,211.286,0.769000000000005,0.946662244961213,0.0625262179022652
143.0,414.216666666667,25593.0,211.853,210.62,1.233,1.51879199130781,0.100314890027771
144.0,417.216666666667,25773.0,212.652,210.49,2.16199999999998,2.66474486855368,0.176004080855635
145.0,420.216666666667,25953.0,210.341,208.462,1.87900000000002,2.31733969183824,0.153058271095815
146.0,423.216666666667,26133.0,210.472,208.559,1.91300000000001,2.36069103651289,0.155921589705922
147.0,426.216666666667,26313.0,210.276,208.713,1.56300000000002,1.92993524656553,0.127470544437908
148.0,429.216666666667,26493.0,210.647,209.011,1.636,2.02127306062368,0.133503327613655
149.0,432.216666666667,26673.0,212.479,211.325,1.15400000000002,1.4266052154369,0.094226033662693
150.0,435.216666666667,26853.0,210.671,208.741,1.92999999999998,2.38731666614475,0.15768018938496
151.0,438.216666666667,27033.0,212.922,211.304,1.618,2.00255477025901,0.132267000815656
152.0,441.216666666667,27213.0,212.605,211.258,1.34699999999998,1.66811166087803,0.110177324329273
153.0,444.216666666667,27393.0,210.504,208.87,1.63399999999999,2.0246954779459,0.133729375301075
154.0,447.216666666667,27573.0,210.562,209.331,1.23100000000002,1.5262103048499,0.100804863185008
155.0,450.216666666667,27753.0,210.118,208.885,1.233,1.52956039894642,0.101026133986275
156.0,453.216666666667,27933.0,210.215,208.239,1.976,2.45265411231336,0.161995670875916
157.0,456.216666666667,28113.0,210.185,208.433,1.75200000000001,2.17584468135117,0.14371264872111
158.0,459.216666666667,28293.0,210.587,208.502,2.08499999999998,2.59085382306286,0.171123641569103
159.0,462.216666666667,28473.0,212.07,210.593,1.477,1.836365283267,0.121290329746289
160.0,465.216666666667,28653.0,209.745,208.238,1.50700000000001,1.87470202400804,0.123822438128128
161.0,468.216666666667,28833.0,211.713,210.253,1.46000000000001,1.8172345474515,0.120026761284994
162.0,471.216666666667,29013.0,212.463,210.622,1.84099999999998,2.29271350993668,0.151431733200305
163.0,474.216666666667,29193.0,212.224,210.609,1.61499999999998,2.01235763144125,0.132914471270519
164.0,477.216666666667,29373.0,212.036,210.065,1.971,2.45728023291434,0.162301222117954
165.0,480.216666666667,29553.0,211.879,209.816,2.06299999999999,2.57336580678417,0.169968573304429
166.0,483.216666666667,29733.0,211.269,210.386,0.88300000000001,1.10203673270226,0.0727885676776567
167.0,486.216666666667,29913.0,211.488,209.802,1.68600000000001,2.10535270192057,0.139056714791453
168.0,489.216666666667,30093.0,210.471,209.631,0.840000000000003,1.049487766171,0.0693177541437264
169.0,492.216666666667,30273.0,209.129,207.589,1.53999999999999,1.9250788255024,0.127149782050653
170.0,495.216666666667,30453.0,210.888,209.29,1.59800000000001,1.99863364286498,0.132008013761755
171.0,498.216666666667,30633.0,210.88,209.259,1.62100000000001,2.02846256320194,0.133978188005742
172.0,501.216666666667,30813.0,208.89,207.142,1.74799999999999,2.1885271322523,0.144550313572327
173.0,504.216666666667,30993.0,208.134,207.098,1.03599999999997,1.29776413659803,0.0857161924673546
174.0,507.216666666667,31173.0,207.98,206.329,1.65099999999998,2.06922441071555,0.136670472580628
175.0,510.216666666667,31353.0,210.441,208.733,1.708,2.1417654733381,0.141461746672883
176.0,513.216666666667,31533.0,210.459,208.547,1.91200000000001,2.39880254256152,0.15843882153223
177.0,516.216666666667,31713.0,207.639,205.788,1.851,2.32345707929131,0.153462319216376
178.0,519.216666666667,31893.0,207.155,205.825,1.33000000000001,1.67032343642386,0.110323410180341
179.0,522.216666666667,32073.0,209.236,207.712,1.524,1.91493347966832,0.126479690782418
180.0,525.216666666667,32253.0,206.776,205.416,1.36000000000001,1.70972607605641,0.112925920256879
181.0,528.216666666667,32433.0,209.574,207.866,1.708,2.14829304711425,0.141892887243317
182.0,531.216666666667,32613.0,206.806,204.775,2.03100000000001,2.55583465027207,0.168810655664861
183.0,534.216666666667,32793.0,208.217,206.633,1.584,1.99431769267573,0.131722949005635
184.0,537.216666666667,32973.0,207.552,206.225,1.327,1.67157396844219,0.110406006732478
185.0,540.216666666667,33153.0,205.672,204.326,1.346,1.69634600543223,0.112042178229722
186.0,543.216666666667,33333.0,205.736,203.857,1.87899999999999,2.36924554735424,0.156486607706545
187.0,546.216666666667,33513.0,207.888,206.257,1.631,2.05754996336495,0.135899385487192
188.0,549.216666666667,33693.0,205.541,204.418,1.12299999999999,1.41738737309576,0.0936172031934535
189.0,552.216666666667,33873.0,205.944,204.441,1.50299999999999,1.89792659380868,0.12535640076345
190.0,555.216666666667,34053.0,205.997,203.996,2.001,2.52800782576506,0.166972718109081
191.0,558.216666666667,34233.0,207.318,206.43,0.888000000000005,1.1224175986287,0.0741347061454543
192.0,561.216666666667,34413.0,205.517,204.061,1.45599999999999,1.84124825524191,0.121612845798174
193.0,564.216666666667,34593.0,207.77,206.261,1.50900000000001,1.90918930860264,0.126100293279632
194.0,567.216666666667,34773.0,207.419,205.933,1.48600000000002,1.88099077692897,0.124237804788793
195.0,570.216666666667,34953.0,207.619,206.079,1.53999999999999,1.95027572663509,0.128814015454985
196.0,573.216666666667,35133.0,207.004,205.408,1.596,2.02215744999132,0.133561740762173
197.0,576.216666666667,35313.0,204.951,203.876,1.07499999999999,1.36268881651377,0.0900044111063189
198.0,579.216666666667,35493.0,205.047,203.702,1.345,1.70575255877694,0.112663472896612
199.0,582.216666666667,35673.0,207.326,206.006,1.31999999999999,1.67483714005931,0.110621536379583
200.0,585.216666666667,35853.0,205.083,204.106,0.977000000000004,1.24021653430781,0.0819152233892033
201.0,588.216666666667,36033.0,204.403,203.811,0.591999999999985,0.751845093650737,0.0496587145041166
202.0,591.216666666667,36213.0,206.947,205.655,1.292,1.64161876125863,0.108427491352113
203.0,594.216666666667,36393.0,206.876,204.984,1.892,2.40510192635514,0.15885489035279
204.0,597.216666666667,36573.0,206.43,204.823,1.607,2.04376159469494,0.134988675729233
205.0,600.216666666667,36753.0,206.536,205.109,1.42699999999999,1.81568199096298,0.119924216279293
206.0,603.216666666667,36933.0,203.874,203.212,0.662000000000006,0.842703352115381,0.0556598234500146
207.0,606.216666666667,37113.0,206.903,205.325,1.578,2.00966710439674,0.132736764299365
208.0,609.216666666667,37293.0,206.337,205.061,1.27599999999998,1.62580208412866,0.107382813584533
209.0,612.216666666667,37473.0,204.644,203.385,1.25900000000001,1.60487828997721,0.106000815179696
210.0,615.216666666667,37653.0,206.514,204.835,1.679,2.14124293124878,0.141427233222374
211.0,618.216666666667,37833.0,203.435,202.33,1.10499999999999,1.40985974775509,0.093120010086997
