"Frame","Time (aligned)","Time [ s]","Intensity Ch3-T2","background","Intensity (bg-subst)","bleach-Corrected","Normalized"
1.0,-12.3333333333333,0.0,277.388,267.253,10.135,10.135,1.00000359500551
2.0,-9.33333333333333,180.0,272.726,263.105,9.62099999999998,9.65295253756209,0.952440773554969
3.0,-6.33333333333333,360.0,272.664,262.545,10.119,10.1858324265642,1.00501914599781
4.0,-3.33333333333333,540.0,271.512,260.831,10.681,10.7862163935779,1.06425803355552
5.0,-0.333333333333333,720.0,269.318,259.531,9.78699999999998,9.91481646604677,0.978278451886192
6.0,3.21666666666667,933.0,281.694,271.106,10.588,10.7598639544656,1.06165788221369
7.0,6.21666666666667,1113.0,279.265,268.911,10.354,10.5545306838187,1.04139798987811
8.0,9.21666666666667,1293.0,277.664,267.675,9.98899999999998,10.2134187954696,1.00774104714025
9.0,12.2166666666667,1473.0,270.651,261.189,9.46199999999999,9.70356127225864,0.957434253242708
10.0,15.2166666666667,1653.0,269.245,259.845,9.39999999999998,9.66843408379974,0.953968311975679
11.0,18.2166666666667,1833.0,269.748,262.804,6.94400000000002,7.16307251665511,0.706768452682807
12.0,21.2166666666667,2013.0,267.148,264.107,3.041,3.1459292107756,0.310403603395011
13.0,24.2166666666667,2193.0,265.823,263.168,2.65499999999997,2.75436665394516,0.271768777099995
14.0,27.2166666666667,2373.0,261.551,259.627,1.92399999999998,2.00156211316537,0.197490805011563
15.0,30.2166666666667,2553.0,259.663,257.445,2.21800000000002,2.31374058548988,0.228292935707945
16.0,33.2166666666667,2733.0,258.704,256.056,2.64800000000002,2.76976437436836,0.273288044566999
17.0,36.2166666666667,2913.0,260.801,258.71,2.09100000000001,2.19297388549022,0.216377086259833
18.0,39.2166666666667,3093.0,258.822,256.844,1.97800000000001,2.07990460160387,0.205220728058447
19.0,42.2166666666667,3273.0,258.073,255.468,2.60499999999999,2.74628705431868,0.270971576441614
20.0,45.2166666666667,3453.0,255.776,253.158,2.61800000000002,2.76702155015034,0.273017414662857
21.0,48.2166666666667,3633.0,256.803,254.204,2.59899999999999,2.75383394300859,0.271716215397807
22.0,51.2166666666667,3813.0,254.538,251.698,2.84,3.01663313990646,0.297646175107964
23.0,54.2166666666667,3993.0,253.978,251.569,2.40900000000002,2.56506283796424,0.253090484398546
24.0,57.2166666666667,4173.0,255.959,253.242,2.71700000000001,2.89996329906036,0.286134555939259
25.0,60.2166666666667,4353.0,256.016,253.16,2.85600000000002,3.0555371095604,0.301484765094538
26.0,63.2166666666667,4533.0,256.698,253.768,2.92999999999998,3.14201716751373,0.310017608592279
27.0,66.2166666666667,4713.0,254.946,252.15,2.79599999999999,3.00521110294986,0.296519181716855
28.0,69.2166666666667,4893.0,255.382,253.115,2.267,2.442146781914,0.240962561563406
29.0,72.2166666666667,5073.0,255.49,253.02,2.47,2.66676895225784,0.263125657553716
30.0,75.2166666666667,5253.0,251.582,249.072,2.50999999999999,2.71591607894663,0.267974922810053
31.0,78.2166666666667,5433.0,252.288,249.776,2.512,2.72397215468421,0.268769802405437
32.0,81.2166666666667,5613.0,250.558,248.264,2.29399999999998,2.49289095643661,0.245969404873539
33.0,84.2166666666667,5793.0,248.254,246.121,2.13299999999998,2.32281283296751,0.229188079278977
34.0,87.2166666666667,5973.0,249.578,247.011,2.56700000000001,2.80123529700356,0.27639322816575
35.0,90.2166666666667,6153.0,248.74,246.295,2.44500000000002,2.67356054782134,0.263795772993215
36.0,93.2166666666667,6333.0,247.498,245.182,2.316,2.53760746259473,0.250381508170452
37.0,96.2166666666667,6513.0,247.144,244.824,2.31999999999999,2.54704192973866,0.251312391353569
38.0,99.2166666666667,6693.0,246.327,243.669,2.65799999999999,2.92383598088532,0.288490033753505
39.0,102.216666666667,6873.0,245.049,242.767,2.28200000000001,2.51507817905404,0.248158581230779
40.0,105.216666666667,7053.0,244.425,242.265,2.16000000000002,2.38514901815067,0.235338687002913
41.0,108.216666666667,7233.0,241.738,239.59,2.148,2.3763491746464,0.234470421078911
42.0,111.216666666667,7413.0,243.004,240.933,2.071,2.29540210471008,0.226483508307182
43.0,114.216666666667,7593.0,242.887,240.684,2.203,2.4461582536016,0.241358366803551
44.0,117.216666666667,7773.0,241.452,240.005,1.447,1.60960319912547,0.15881687080985
45.0,120.216666666667,7953.0,240.116,238.052,2.06400000000002,2.30000765961792,0.226937930750678
46.0,123.216666666667,8133.0,241.687,239.561,2.126,2.37323846168009,0.234163492203791
47.0,126.216666666667,8313.0,241.131,239.843,1.28800000000001,1.44026339979898,0.14210839443057
48.0,129.216666666667,8493.0,239.548,237.857,1.691,1.89411876043395,0.186889548081038
49.0,132.216666666667,8673.0,241.777,239.617,2.16,2.42350909652887,0.239123612141827
50.0,135.216666666667,8853.0,239.241,237.129,2.11200000000002,2.37357010443971,0.234196214843346
51.0,138.216666666667,9033.0,240.175,238.844,1.33100000000002,1.49828200441824,0.147832993660612
52.0,141.216666666667,9213.0,240.285,238.082,2.203,2.48386302957513,0.245078634343996
53.0,144.216666666667,9393.0,238.36,236.369,1.99100000000001,2.24839437582717,0.221845333874428
54.0,147.216666666667,9573.0,238.338,235.692,2.64599999999999,2.99274533809295,0.295289205429592
55.0,150.216666666667,9753.0,237.388,235.021,2.36700000000002,2.68131380121914,0.26456077361194
56.0,153.216666666667,9933.0,238.926,236.838,2.08799999999999,2.3688647785468,0.233731948162676
57.0,156.216666666667,10113.0,239.523,237.258,2.26499999999999,2.57353131796501,0.253926055236731
58.0,159.216666666667,10293.0,237.448,235.124,2.32400000000001,2.64447878953641,0.260926324267609
59.0,162.216666666667,10473.0,236.59,234.467,2.12299999999999,2.41929072823196,0.238707392757321
60.0,165.216666666667,10653.0,236.646,234.278,2.36799999999999,2.70237370368801,0.26663871916491
61.0,168.216666666667,10833.0,238.385,235.962,2.423,2.76907328194224,0.273219855626634
62.0,171.216666666667,11013.0,236.375,234.265,2.11000000000001,2.41475263001484,0.238259626153314
63.0,174.216666666667,11193.0,237.755,235.649,2.10599999999999,2.41351326162825,0.238137339735739
64.0,177.216666666667,11373.0,235.982,233.766,2.21600000000001,2.54304662096918,0.250918180881676
65.0,180.216666666667,11553.0,237.73,235.263,2.46699999999998,2.83490957057598,0.279715812737197
66.0,183.216666666667,11733.0,236.616,234.521,2.09500000000003,2.41063784183341,0.237853626846545
67.0,186.216666666667,11913.0,236.74,234.488,2.25200000000001,2.59469748931996,0.256014486163958
68.0,189.216666666667,12093.0,235.024,232.438,2.58600000000001,2.98338925853736,0.294366056619454
69.0,192.216666666667,12273.0,235.536,233.569,1.96700000000001,2.27217407029187,0.22419163678048
70.0,195.216666666667,12453.0,233.998,231.411,2.58699999999999,2.99214349084397,0.295229822162437
71.0,198.216666666667,12633.0,234.917,232.927,1.99000000000001,2.30452194725957,0.227383348004801
72.0,201.216666666667,12813.0,233.13,230.645,2.48499999999999,2.88130417572716,0.284293491270995
73.0,204.216666666667,12993.0,234.266,232.126,2.13999999999999,2.48430385505582,0.245122129861061
74.0,207.216666666667,13173.0,232.745,230.096,2.649,3.07889248192918,0.303789200845052
75.0,210.216666666667,13353.0,231.914,229.54,2.374,2.76253903060656,0.272575131914118
76.0,213.216666666667,13533.0,232.239,229.628,2.61100000000002,3.04188896327967,0.300138125198544
77.0,216.216666666667,13713.0,233.252,230.827,2.42500000000001,2.82846463824838,0.279079901982667
78.0,219.216666666667,13893.0,231.67,228.539,3.131,3.65610334753147,0.360741637024483
79.0,222.216666666667,14073.0,231.228,228.631,2.59700000000001,3.03597157502316,0.299554266340176
80.0,225.216666666667,14253.0,232.184,229.82,2.364,2.76667189178072,0.272982914453024
81.0,228.216666666667,14433.0,232.051,229.506,2.54499999999999,2.9817868273203,0.294207947396188
82.0,231.216666666667,14613.0,230.365,226.786,3.57900000000001,4.19781614143739,0.41419153750464
83.0,234.216666666667,14793.0,230.901,228.242,2.65900000000002,3.12210392278573,0.308052801851655
84.0,237.216666666667,14973.0,229.136,226.268,2.86799999999999,3.3710870098627,0.33261954898264
85.0,240.216666666667,15153.0,230.657,226.181,4.476,5.26668428062671,0.519654979219112
86.0,243.216666666667,15333.0,232.528,227.097,5.43099999999998,6.39702567362092,0.631183884653521
87.0,246.216666666667,15513.0,231.921,227.132,4.78899999999999,5.64662570332128,0.557143167535449
88.0,249.216666666667,15693.0,231.504,226.667,4.83699999999999,5.70901267500377,0.563298786278813
89.0,252.216666666667,15873.0,230.885,226.562,4.32299999999998,5.10747074919205,0.503945644852247
90.0,255.216666666667,16053.0,230.937,226.48,4.45700000000002,5.27101300155522,0.520082086914256
91.0,258.216666666667,16233.0,229.337,223.669,5.66799999999998,6.70976413441722,0.662041268481127
92.0,261.216666666667,16413.0,230.726,225.862,4.864,5.76357812038463,0.568682668029572
93.0,264.216666666667,16593.0,230.357,225.594,4.76300000000001,5.64931431090575,0.557408447974525
94.0,267.216666666667,16773.0,229.927,224.614,5.31299999999999,6.30764046453846,0.622364394725275
95.0,270.216666666667,16953.0,227.778,222.923,4.85499999999999,5.76930912890214,0.56924813710905
96.0,273.216666666667,17133.0,227.859,222.633,5.226,6.21594305613826,0.613316763935646
97.0,276.216666666667,17313.0,227.465,221.716,5.749,6.84429379254595,0.67531508611937
98.0,279.216666666667,17493.0,226.926,222.175,4.75099999999998,5.6612955034769,0.558590612320218
99.0,282.216666666667,17673.0,227.526,222.108,5.41800000000001,6.46189770266341,0.637584699873827
100.0,285.216666666667,17853.0,229.074,223.499,5.57500000000002,6.65506244515154,0.656643943772834
101.0,288.216666666667,18033.0,228.572,223.356,5.21600000000001,6.23199373951393,0.614900458171262
102.0,291.216666666667,18213.0,226.711,221.634,5.07700000000003,6.07120367975949,0.599035570376927
103.0,294.216666666667,18393.0,228.704,223.515,5.18900000000002,6.21048688163216,0.612778412271011
104.0,297.216666666667,18573.0,226.353,220.959,5.39400000000001,6.46135279881858,0.637530935117658
105.0,300.216666666667,18753.0,228.737,223.173,5.56399999999999,6.67062359287409,0.658179336339678
106.0,303.216666666667,18933.0,226.521,220.656,5.86499999999998,7.03737132861071,0.694365725505613
107.0,306.216666666667,19113.0,227.928,222.569,5.35900000000001,6.43555118287402,0.634985132581742
108.0,309.216666666667,19293.0,225.88,220.223,5.65699999999998,6.79898654503844,0.670844695355945
109.0,312.216666666667,19473.0,227.598,221.761,5.83700000000002,7.02102054408022,0.692752420788133
110.0,315.216666666667,19653.0,227.404,221.743,5.661,6.81479590114258,0.672404578231018
111.0,318.216666666667,19833.0,227.37,221.791,5.57900000000001,6.72143297154077,0.663192613234268
112.0,321.216666666667,20013.0,226.738,221.91,4.828,5.82123738936528,0.574371812209743
113.0,324.216666666667,20193.0,225.102,219.217,5.88499999999999,7.10123428214176,0.700666976923345
114.0,327.216666666667,20373.0,226.688,220.591,6.09699999999998,7.3627446879084,0.726469773755905
115.0,330.216666666667,20553.0,224.662,219.542,5.12,6.18766203858981,0.610526322966839
116.0,333.216666666667,20733.0,225.019,218.97,6.04900000000001,7.31594194513963,0.721851824962132
117.0,336.216666666667,20913.0,226.696,220.189,6.50700000000001,7.8757973910046,0.777091830738983
118.0,339.216666666667,21093.0,225.753,220.375,5.37799999999999,6.51416365352836,0.642741694324871
119.0,342.216666666667,21273.0,224.537,218.125,6.41200000000001,7.77235539279281,0.766885380804465
120.0,345.216666666667,21453.0,223.94,218.545,5.39500000000001,6.54438801383169,0.645723881691429
121.0,348.216666666667,21633.0,223.662,217.906,5.756,6.98737527921773,0.689432698457852
122.0,351.216666666667,21813.0,223.353,217.661,5.69200000000001,6.91466520000093,0.682258515861904
123.0,354.216666666667,21993.0,225.384,219.926,5.458,6.63514042992884,0.654678271662084
124.0,357.216666666667,22173.0,223.015,217.825,5.19,6.31381217070895,0.622973346709272
125.0,360.216666666667,22353.0,222.955,217.607,5.34800000000001,6.51059755230936,0.642389833048191
126.0,363.216666666667,22533.0,224.859,219.3,5.559,6.77218425249061,0.668200157723758
127.0,366.216666666667,22713.0,224.51,219.264,5.24599999999998,6.39529455724275,0.631013078279417
128.0,369.216666666667,22893.0,222.105,217.083,5.02199999999999,6.12641948250433,0.604483621807213
129.0,372.216666666667,23073.0,224.35,218.331,6.01900000000001,7.34767177316494,0.724982554325153
130.0,375.216666666667,23253.0,222.152,216.102,6.04999999999998,7.39050020693274,0.729208364659268
131.0,378.216666666667,23433.0,221.481,215.866,5.61499999999998,6.86371100679416,0.677230950357477
132.0,381.216666666667,23613.0,221.534,215.544,5.98999999999998,7.32697281254576,0.722940222304229
133.0,384.216666666667,23793.0,220.854,215.531,5.32300000000001,6.51539205190447,0.642862898349756
134.0,387.216666666667,23973.0,222.044,217.043,5.00100000000001,6.12526827380496,0.604370033959362
135.0,390.216666666667,24153.0,222.767,216.969,5.798,7.10605438714081,0.701142568667534
136.0,393.216666666667,24333.0,221.88,216.445,5.435,6.66545566364599,0.657669425357257
137.0,396.216666666667,24513.0,221.477,215.611,5.86600000000001,7.19863736817071,0.710277577435785
138.0,399.216666666667,24693.0,221.523,215.812,5.71099999999998,7.01287893601266,0.691949101859995
139.0,402.216666666667,24873.0,220.846,215.466,5.38,6.61059331537946,0.652256248692534
140.0,405.216666666667,25053.0,218.809,213.039,5.77000000000001,7.09424261822714,0.699977121072364
141.0,408.216666666667,25233.0,220.306,215.321,4.98500000000001,6.13289541541401,0.605122591337622
142.0,411.216666666667,25413.0,220.691,214.877,5.81399999999999,7.15720974278862,0.706189982535476
143.0,414.216666666667,25593.0,220.177,214.424,5.75299999999999,7.08646417355537,0.69920963487253
144.0,417.216666666667,25773.0,220.666,214.287,6.37899999999999,7.86235315286961,0.775765310120621
145.0,420.216666666667,25953.0,218.015,212.858,5.15699999999998,6.3600429967055,0.627534865426255
146.0,423.216666666667,26133.0,218.249,212.662,5.58699999999999,6.89450121327623,0.680268968825462
147.0,426.216666666667,26313.0,218.493,212.422,6.071,7.49624880479794,0.739642402945601
148.0,429.216666666667,26493.0,218.3,212.521,5.77900000000003,7.13993705216646,0.704485714877107
149.0,432.216666666667,26673.0,219.944,214.32,5.624,6.95253702913082,0.685995266259469
150.0,435.216666666667,26853.0,218.266,212.593,5.673,7.01722665649705,0.69237808420972
151.0,438.216666666667,27033.0,220.558,214.544,6.01399999999998,7.44336488772415,0.734424434796439
152.0,441.216666666667,27213.0,220.418,214.523,5.89500000000001,7.30031049805206,0.720309496073853
153.0,444.216666666667,27393.0,218.5,212.359,6.14099999999999,7.60933594251278,0.750800522754552
154.0,447.216666666667,27573.0,218.277,212.318,5.95899999999998,7.3880480963447,0.728966418985524
155.0,450.216666666667,27753.0,218.143,212.044,6.09899999999999,7.5659277154697,0.74651750518219
156.0,453.216666666667,27933.0,217.575,212.673,4.90199999999999,6.08446885554659,0.600344423211212
157.0,456.216666666667,28113.0,218.407,212.63,5.77700000000002,7.1745746142498,0.707903345523932
158.0,459.216666666667,28293.0,218.366,212.499,5.86700000000002,7.29042656110792,0.719334264453039
159.0,462.216666666667,28473.0,219.903,213.939,5.964,7.41508635707811,0.731634239206156
160.0,465.216666666667,28653.0,217.653,212.259,5.39400000000001,6.71011461015219,0.66207584933904
161.0,468.216666666667,28833.0,219.447,213.823,5.624,7.00008705127887,0.690686947866834
162.0,471.216666666667,29013.0,220.289,214.447,5.84199999999998,7.27541136613266,0.717852740135824
163.0,474.216666666667,29193.0,220.0,214.207,5.79300000000001,7.21832059377048,0.71221968857156
164.0,477.216666666667,29373.0,219.776,214.095,5.68100000000001,7.08260223398598,0.698828583717811
165.0,480.216666666667,29553.0,219.805,213.909,5.89600000000002,7.35461211672302,0.725667346481902
166.0,483.216666666667,29733.0,219.742,213.963,5.779,7.212537121502,0.711649042981023
167.0,486.216666666667,29913.0,220.157,213.839,6.31800000000001,7.88945336342475,0.778439242827137
168.0,489.216666666667,30093.0,219.717,213.576,6.14100000000002,7.6725052048287,0.75703332881373
169.0,492.216666666667,30273.0,217.72,211.338,6.38200000000001,7.97782666516651,0.787158889540927
170.0,495.216666666667,30453.0,219.313,213.191,6.12199999999999,7.65684302979931,0.755487968050535
171.0,498.216666666667,30633.0,219.043,213.043,6.0,7.50818962320268,0.74082058363944
172.0,501.216666666667,30813.0,216.765,210.782,5.98299999999998,7.4908225585043,0.739107004247918
173.0,504.216666666667,30993.0,216.895,210.457,6.43800000000002,8.06467713457369,0.795728280920809
174.0,507.216666666667,31173.0,216.33,210.441,5.88900000000001,7.38077683507211,0.728248975728216
175.0,510.216666666667,31353.0,218.267,212.306,5.96099999999998,7.47486181883395,0.737532184608125
176.0,513.216666666667,31533.0,218.204,211.866,6.33799999999999,7.95167913951614,0.784578956669603
177.0,516.216666666667,31713.0,215.932,209.559,6.37299999999999,7.99967151070961,0.789314284121632
178.0,519.216666666667,31893.0,215.96,209.281,6.679,8.38803776832697,0.827633736888893
179.0,522.216666666667,32073.0,218.151,211.989,6.16200000000001,7.74266410873766,0.763955791184782
180.0,525.216666666667,32253.0,215.618,209.578,6.03999999999999,7.5931952201328,0.749207944520121
181.0,528.216666666667,32433.0,218.58,212.443,6.137,7.71901313240057,0.761622188682318
182.0,531.216666666667,32613.0,216.499,210.122,6.37699999999998,8.02489294179465,0.791802840782334
183.0,534.216666666667,32793.0,217.347,211.817,5.53,6.96248537910149,0.686976853406489
184.0,537.216666666667,32973.0,216.942,211.346,5.596,7.04907907113982,0.695520908990419
185.0,540.216666666667,33153.0,215.471,208.979,6.49199999999999,8.18178177360028,0.807282800902892
186.0,543.216666666667,33333.0,215.831,209.259,6.572,8.28668533114004,0.817633460465657
187.0,546.216666666667,33513.0,216.831,210.982,5.84899999999999,7.3786693658624,0.728041035246117
188.0,549.216666666667,33693.0,214.985,208.869,6.11600000000001,7.71927085828474,0.761647618066697
189.0,552.216666666667,33873.0,216.012,208.476,7.536,9.51615090548393,0.938942784025539
190.0,555.216666666667,34053.0,215.324,208.776,6.548,8.27256134088436,0.816239869836007
191.0,558.216666666667,34233.0,217.258,210.143,7.11500000000001,8.99324461063423,0.887348489531142
192.0,561.216666666667,34413.0,215.346,208.318,7.02799999999999,8.88756369357156,0.876921129197038
193.0,564.216666666667,34593.0,216.056,210.184,5.87200000000001,7.42926416177246,0.733033139616974
194.0,567.216666666667,34773.0,216.603,210.193,6.41,8.11382966360334,0.800578079217134
195.0,570.216666666667,34953.0,216.898,210.054,6.84399999999999,8.66732926824065,0.855190964710123
196.0,573.216666666667,35133.0,216.735,210.175,6.56,8.31162460648061,0.820094177288292
197.0,576.216666666667,35313.0,215.101,208.04,7.06100000000001,8.95064719386403,0.883145473259988
198.0,579.216666666667,35493.0,214.711,207.805,6.90600000000001,8.75831016424798,0.864167898413542
199.0,582.216666666667,35673.0,215.539,209.457,6.08199999999999,7.7169390044248,0.761417537924323
200.0,585.216666666667,35853.0,214.108,207.504,6.60400000000001,8.38320367714308,0.827156765151106
201.0,588.216666666667,36033.0,214.198,207.51,6.68800000000002,8.49381754448695,0.838070851485722
202.0,591.216666666667,36213.0,216.153,209.546,6.607,8.39487241148276,0.828308099762733
203.0,594.216666666667,36393.0,216.077,209.097,6.97999999999999,8.8729447388789,0.87547870124954
204.0,597.216666666667,36573.0,216.202,209.538,6.66399999999999,8.47518809399318,0.836232714587178
205.0,600.216666666667,36753.0,215.801,208.68,7.12099999999998,9.06059667669755,0.893994005879871
206.0,603.216666666667,36933.0,213.901,206.172,7.72900000000001,9.8387525808153,0.970773354828318
207.0,606.216666666667,37113.0,215.466,208.837,6.62900000000002,8.44238481308364,0.832996069413274
208.0,609.216666666667,37293.0,215.708,208.153,7.55500000000001,9.62612440877135,0.949793686703661
209.0,612.216666666667,37473.0,214.245,206.596,7.649,9.75036857826491,0.962052652283536
