"Frame","Time (aligned)","Time [ s]","Intensity Ch3-T2","background","Intensity (bg-subst)","bleach-Corrected","Normalized"
1.0,-234.883333333333,0.0,265.827,260.578,5.24900000000002,5.24900000000002,0.507854337524769
2.0,-231.883333333333,180.0,261.143,256.119,5.02399999999994,5.04068532883396,0.487699353847548
3.0,-228.883333333333,360.0,258.962,254.063,4.899,4.93135616738196,0.477121474468364
4.0,-225.883333333333,540.0,259.079,253.493,5.58600000000001,5.64102656816086,0.545783922791569
5.0,-222.883333333333,720.0,258.326,252.916,5.41000000000003,5.48065363046014,0.530267425928757
6.0,-219.333333333333,933.0,272.265,267.139,5.12599999999998,5.20920500855595,0.504004069089518
7.0,-216.333333333333,1113.0,270.138,265.624,4.51399999999995,4.60142471573857,0.445199752463612
8.0,-213.333333333333,1293.0,268.688,263.24,5.44799999999998,5.57039799756915,0.538950425758196
9.0,-210.333333333333,1473.0,261.845,256.122,5.72300000000001,5.86910601998905,0.567851200160824
10.0,-207.333333333333,1653.0,260.97,255.806,5.16400000000002,5.31146740518533,0.513898220679137
11.0,-204.333333333333,1833.0,263.146,257.795,5.351,5.5198158174858,0.534056468898454
12.0,-201.333333333333,2013.0,264.178,259.038,5.13999999999999,5.31735486464537,0.514467847622132
13.0,-198.333333333333,2193.0,263.46,258.356,5.10399999999999,5.29502350347879,0.51230723062246
14.0,-195.333333333333,2373.0,260.571,255.666,4.90500000000003,5.10273501303342,0.493702821415226
15.0,-192.333333333333,2553.0,259.468,253.511,5.95700000000002,6.21413555805373,0.601233701109635
16.0,-189.333333333333,2733.0,256.949,251.608,5.34100000000001,5.58659800736454,0.540517818641132
17.0,-186.333333333333,2913.0,260.897,255.577,5.31999999999999,5.57944575361449,0.539825819576541
18.0,-183.333333333333,3093.0,259.805,254.369,5.43600000000001,5.71605733787593,0.553043343985628
19.0,-180.333333333333,3273.0,258.034,251.688,6.346,6.6901871964324,0.647292929426721
20.0,-177.333333333333,3453.0,255.354,249.323,6.03100000000001,6.37429601564423,0.616729639971759
21.0,-174.333333333333,3633.0,258.094,251.648,6.446,6.83001677438762,0.660821803055757
22.0,-171.333333333333,3813.0,254.58,248.755,5.82500000000002,6.18728452111098,0.598635793779018
23.0,-168.333333333333,3993.0,254.802,248.096,6.70599999999999,7.14043644308345,0.690855709552267
24.0,-165.333333333333,4173.0,256.659,250.228,6.43099999999998,6.86406476858927,0.664116034631167
25.0,-162.333333333333,4353.0,256.296,250.235,6.06099999999998,6.48445743033803,0.627388042006453
26.0,-159.333333333333,4533.0,258.185,251.464,6.721,7.20733699073718,0.697328510716056
27.0,-156.333333333333,4713.0,254.287,247.974,6.31300000000002,6.78537113480778,0.656502221857017
28.0,-153.333333333333,4893.0,254.987,248.549,6.43799999999999,6.93539522803807,0.671017441228368
29.0,-150.333333333333,5073.0,255.604,249.215,6.38900000000001,6.89797037893741,0.667396490200176
30.0,-147.333333333333,5253.0,252.527,246.233,6.29399999999998,6.81034892465742,0.658918887682302
31.0,-144.333333333333,5433.0,252.543,245.421,7.12200000000001,7.72298156276314,0.747218457853508
32.0,-141.333333333333,5613.0,250.675,243.876,6.79900000000001,7.38847672746845,0.714854249141865
33.0,-138.333333333333,5793.0,249.936,243.08,6.85599999999999,7.46610632106206,0.722365113273471
34.0,-135.333333333333,5973.0,250.296,243.622,6.67399999999998,7.28299352247824,0.704648476005974
35.0,-132.333333333333,6153.0,249.816,243.119,6.697,7.32304089519811,0.708523162982971
36.0,-129.333333333333,6333.0,248.721,242.072,6.649,7.2852124433473,0.704863162343939
37.0,-126.333333333333,6513.0,248.37,241.297,7.07300000000001,7.7651842970007,0.751301681636695
38.0,-123.333333333333,6693.0,247.942,240.585,7.357,8.09279959043394,0.782999309339024
39.0,-120.333333333333,6873.0,247.277,240.542,6.73499999999999,7.42289725500827,0.718184524282079
40.0,-117.333333333333,7053.0,247.001,239.607,7.39400000000001,8.16471844453977,0.789957644642406
41.0,-114.333333333333,7233.0,243.905,236.484,7.42099999999999,8.2099102537481,0.794330069166514
42.0,-111.333333333333,7413.0,245.115,238.282,6.833,7.57338608473394,0.732744708112373
43.0,-108.333333333333,7593.0,245.059,237.641,7.41800000000001,8.23676891748373,0.796928714409086
44.0,-105.333333333333,7773.0,244.94,237.674,7.26599999999999,8.08249954723262,0.782002753496676
45.0,-102.333333333333,7953.0,242.57,235.078,7.49199999999999,8.34867121407813,0.807755551274098
46.0,-99.3333333333333,8133.0,245.099,237.042,8.05699999999999,8.9939709716634,0.870189973238922
47.0,-96.3333333333333,8313.0,244.716,236.963,7.75300000000001,8.66953582192654,0.838800032671317
48.0,-93.3333333333333,8493.0,242.729,234.86,7.869,8.81420492362785,0.852797142750346
49.0,-90.3333333333333,8673.0,245.123,237.39,7.733,8.6763869645638,0.839462898456291
50.0,-87.3333333333333,8853.0,242.623,234.535,8.08799999999999,9.08969460450198,0.879451482505583
51.0,-84.3333333333333,9033.0,243.612,235.669,7.94299999999998,8.94128772433803,0.865092732684707
52.0,-81.3333333333333,9213.0,244.015,235.969,8.04599999999999,9.07179388831658,0.877719541876976
53.0,-78.3333333333333,9393.0,241.924,233.609,8.315,9.389954412357,0.908502396165999
54.0,-75.3333333333333,9573.0,241.216,233.8,7.416,8.38783047138979,0.811544310786382
55.0,-72.3333333333333,9753.0,240.727,233.216,7.511,8.50838528135056,0.823208300717425
56.0,-69.3333333333333,9933.0,242.811,234.33,8.48099999999999,9.62181139217216,0.930935159146475
57.0,-66.3333333333333,10113.0,242.646,234.872,7.77399999999997,8.83295031605299,0.85461080799167
58.0,-63.3333333333333,10293.0,240.612,232.679,7.93299999999999,9.02695793347341,0.87338154718386
59.0,-60.3333333333333,10473.0,240.402,232.226,8.17599999999999,9.31706123128807,0.9014497922068
60.0,-57.3333333333333,10653.0,239.68,231.778,7.90200000000002,9.01780278992516,0.872495763346626
61.0,-54.3333333333333,10833.0,241.418,233.61,7.80799999999999,8.92320436871851,0.863343121218069
62.0,-51.3333333333333,11013.0,239.721,231.066,8.655,9.90506351316507,0.958340535077003
63.0,-48.3333333333333,11193.0,241.056,232.902,8.15400000000003,9.34462826938124,0.904116974502157
64.0,-45.3333333333333,11373.0,239.219,230.073,9.14599999999999,10.495805232574,1.01549632561971
65.0,-42.3333333333333,11553.0,240.517,232.056,8.46099999999998,9.72280902985142,0.940706942033724
66.0,-39.3333333333333,11733.0,240.034,231.166,8.868,10.2040746450494,0.987270636104938
67.0,-36.3333333333333,11913.0,239.428,231.024,8.404,9.68287642106786,0.936843358764642
68.0,-33.3333333333333,12093.0,237.024,228.672,8.352,9.63544744288627,0.932254482351251
69.0,-30.3333333333333,12273.0,239.656,230.808,8.84800000000001,10.2207403019534,0.988883081551006
70.0,-27.3333333333333,12453.0,236.84,228.512,8.328,9.63222690055999,0.93194288654451
71.0,-24.3333333333333,12633.0,238.662,229.644,9.018,10.4433059901441,1.01041688801544
72.0,-21.3333333333333,12813.0,236.227,227.219,9.00800000000001,10.4445827021933,1.0105404132111
73.0,-18.3333333333333,12993.0,238.181,229.384,8.79700000000003,10.2123462677225,0.988070937010432
74.0,-15.3333333333333,13173.0,235.948,226.973,8.97499999999999,10.4315062383218,1.00927523148188
75.0,-12.3333333333333,13353.0,235.419,227.11,8.309,9.66888660712296,0.935489808051539
76.0,-9.33333333333333,13533.0,235.714,226.87,8.84399999999999,10.30351052901,0.996891315277167
77.0,-6.33333333333333,13713.0,237.237,228.523,8.714,10.1638106629675,0.983374991611459
78.0,-3.33333333333333,13893.0,234.688,226.078,8.60999999999999,10.053992277945,0.972749778585426
79.0,-0.333333333333333,14073.0,234.489,225.771,8.71800000000002,10.1916057724497,0.986064240404083
80.0,2.66666666666667,14253.0,236.225,227.475,8.75,10.2404310715234,0.990788214478289
81.0,5.66666666666667,14433.0,235.897,227.132,8.76499999999999,10.2692972658006,0.99358109349744
82.0,8.66666666666667,14613.0,233.86,224.892,8.96800000000002,10.5185848439258,1.01770031198514
83.0,11.6666666666667,14793.0,235.15,226.243,8.90700000000001,10.4582849342807,1.01186613963505
84.0,14.6666666666667,14973.0,233.084,224.025,9.059,10.648074345309,1.03022875643958
85.0,17.6666666666667,15153.0,232.835,223.612,9.22300000000001,10.8522406434808,1.04998237429116
86.0,20.6666666666667,15333.0,234.861,225.393,9.46799999999999,11.1520970498698,1.0789942578155
87.0,23.6666666666667,15513.0,234.378,225.304,9.07399999999998,10.6989938676002,1.03515535203118
88.0,26.6666666666667,15693.0,234.234,224.805,9.429,11.1288568353547,1.0767457069017
89.0,29.6666666666667,15873.0,233.312,224.285,9.02700000000002,10.6650794478272,1.03187404412751
90.0,32.6666666666667,16053.0,233.378,224.422,8.95599999999999,10.5916967560979,1.02477407874477
91.0,35.6666666666667,16233.0,230.918,221.967,8.95099999999999,10.5961712715541,1.02520699969786
92.0,38.6666666666667,16413.0,232.844,223.771,9.07300000000001,10.7510165062191,1.040188676983
93.0,41.6666666666667,16593.0,232.182,222.981,9.20099999999999,10.9131515798118,1.05587566505481
94.0,44.6666666666667,16773.0,231.781,222.968,8.81300000000002,10.4628713370935,1.01230988597952
95.0,47.6666666666667,16953.0,229.781,220.901,8.88,10.5523100030177,1.02096330842799
96.0,50.6666666666667,17133.0,229.795,220.233,9.56199999999998,11.3732964988125,1.10039587709605
97.0,53.6666666666667,17313.0,229.031,220.45,8.58100000000002,10.215843630864,0.988409315947615
98.0,56.6666666666667,17493.0,228.904,219.896,9.00800000000001,10.7339402010777,1.03853650025696
99.0,59.6666666666667,17673.0,228.51,219.895,8.61499999999998,10.2748705626514,0.994120324394749
100.0,62.6666666666667,17853.0,230.529,221.652,8.87700000000001,10.5967693857597,1.02526486879552
101.0,65.6666666666667,18033.0,230.6,221.888,8.71199999999999,10.4089588686053,1.00709371509584
102.0,68.6666666666667,18213.0,228.606,219.758,8.84799999999999,10.5806598697088,1.02370623141662
103.0,71.6666666666667,18393.0,230.293,221.296,8.99700000000001,10.7681153351406,1.04184303294306
104.0,74.6666666666667,18573.0,228.059,219.654,8.405,10.0681628242622,0.974120815623385
105.0,77.6666666666667,18753.0,230.223,221.546,8.67700000000002,10.402767957471,1.00649472841785
106.0,80.6666666666667,18933.0,227.62,219.411,8.209,9.84992007443573,0.953005264636019
107.0,83.6666666666667,19113.0,229.011,220.864,8.14699999999999,9.78362296825424,0.946590847996734
108.0,86.6666666666667,19293.0,227.126,218.931,8.19499999999999,9.8493361740481,0.952948770762035
109.0,89.6666666666667,19473.0,228.894,220.69,8.20400000000001,9.86816044948329,0.954770068138778
110.0,92.6666666666667,19653.0,228.638,220.378,8.26000000000002,9.94351071249564,0.962060401136387
111.0,95.6666666666667,19833.0,228.828,220.64,8.18800000000002,9.86468778830898,0.954434079180857
112.0,98.6666666666667,20013.0,228.814,220.22,8.59399999999999,10.3619954689737,1.00254988461236
113.0,101.666666666667,20193.0,226.468,218.028,8.44,10.1842680274047,0.985354294576542
114.0,104.666666666667,20373.0,228.258,220.287,7.971,9.625789389424,0.931320040678007
115.0,107.666666666667,20553.0,225.727,217.65,8.077,9.7612785714238,0.944428969762839
116.0,110.666666666667,20733.0,225.224,217.206,8.018,9.69734212533137,0.938242953097958
117.0,113.666666666667,20913.0,227.204,219.258,7.946,9.61750208528085,0.9305182225497
118.0,116.666666666667,21093.0,227.421,219.307,8.114,9.82817476473211,0.950901349632436
119.0,119.666666666667,21273.0,225.083,216.952,8.131,9.85605453817815,0.953598789882728
120.0,122.666666666667,21453.0,225.061,216.984,8.077,9.79777979383103,0.947960557517548
121.0,125.666666666667,21633.0,224.904,217.235,7.66899999999998,9.30962144133437,0.900729973270191
122.0,128.666666666667,21813.0,224.524,216.715,7.809,9.48640557744328,0.917834296060909
123.0,131.666666666667,21993.0,226.317,218.536,7.78100000000001,9.45914761547753,0.915197017680952
124.0,134.666666666667,22173.0,224.47,216.441,8.029,9.76755258547633,0.94503599686329
125.0,137.666666666667,22353.0,224.181,216.288,7.893,9.60885311899358,0.929681412672752
126.0,140.666666666667,22533.0,225.501,217.927,7.57400000000001,9.22693353631301,0.89272970441404
127.0,143.666666666667,22713.0,225.146,217.99,7.15599999999998,8.72373767663536,0.844044202420938
128.0,146.666666666667,22893.0,222.538,215.679,6.85900000000001,8.36740566119023,0.809568157528053
129.0,149.666666666667,23073.0,224.727,217.273,7.45400000000001,9.09944266442457,0.880394632536853
130.0,152.666666666667,23253.0,222.282,214.845,7.43700000000001,9.08481818825769,0.878979676610891
131.0,155.666666666667,23433.0,221.857,214.504,7.35300000000001,8.98822208957395,0.869633754015251
132.0,158.666666666667,23613.0,221.671,214.672,6.999,8.56118242320666,0.828316560862316
133.0,161.666666666667,23793.0,221.016,214.11,6.90599999999998,8.45299596288786,0.817849240775756
134.0,164.666666666667,23973.0,222.593,215.722,6.87099999999998,8.41566052975679,0.814236940974084
135.0,167.666666666667,24153.0,222.002,215.236,6.76600000000002,8.29243945901946,0.802314983411044
136.0,170.666666666667,24333.0,221.753,215.309,6.44399999999999,7.90288800304226,0.764624871655069
137.0,173.666666666667,24513.0,220.88,214.603,6.27699999999999,7.70300831230947,0.745285994169499
138.0,176.666666666667,24693.0,220.163,214.923,5.24000000000001,6.43450982747443,0.622555482135384
139.0,179.666666666667,24873.0,219.694,213.883,5.81099999999998,7.14017802149999,0.690830706595119
140.0,182.666666666667,25053.0,216.395,211.635,4.76000000000002,5.85244278384077,0.56623898892914
141.0,185.666666666667,25233.0,217.301,213.91,3.39099999999999,4.17184520635282,0.403636822924021
142.0,188.666666666667,25413.0,215.801,213.977,1.82399999999998,2.24539913499249,0.217248178735054
143.0,191.666666666667,25593.0,214.55,213.83,0.719999999999999,0.886885834340322,0.0858085002589073
144.0,194.666666666667,25773.0,214.311,213.75,0.561000000000007,0.69145322444896,0.066899889356428
145.0,197.666666666667,25953.0,211.835,211.72,0.115000000000009,0.141827602214697,0.0137221876482132
146.0,200.666666666667,26133.0,212.186,211.927,0.259000000000015,0.319612639026069,0.030923350172819
147.0,203.666666666667,26313.0,212.105,211.952,0.152999999999992,0.18891880532598,0.0182783834491895
148.0,206.666666666667,26493.0,212.224,211.805,0.418999999999983,0.517673234964113,0.0500862255281011
149.0,209.666666666667,26673.0,214.17,213.63,0.539999999999992,0.667562232526776,0.0645883740439018
150.0,212.666666666667,26853.0,212.038,211.398,0.640000000000015,0.791649049913311,0.0765940948363185
151.0,215.666666666667,27033.0,214.343,213.858,0.484999999999985,0.600271361913221,0.0580778081233623
152.0,218.666666666667,27213.0,213.903,213.805,0.0979999999999848,0.121362244072772,0.0117421112714987
153.0,221.666666666667,27393.0,212.14,212.489,-0.349000000000018,-0.43244719816595,-0.0418403858523548
154.0,224.666666666667,27573.0,212.247,211.969,0.27800000000002,0.344668127334114,0.0333475335250845
155.0,227.666666666667,27753.0,211.612,211.325,0.287000000000006,0.356029062852903,0.0344467334453657
156.0,230.666666666667,27933.0,212.204,211.618,0.586000000000013,0.727355926020072,0.0703735686709158
157.0,233.666666666667,28113.0,211.46,211.571,-0.11099999999999,-0.13785317330477,-0.0133376513629988
158.0,236.666666666667,28293.0,211.764,211.453,0.311000000000007,0.386453495910108,0.0373903761001254
159.0,239.666666666667,28473.0,213.746,213.1,0.646000000000015,0.803176691259653,0.077709423976949
160.0,242.666666666667,28653.0,211.609,211.176,0.433000000000021,0.538650282943278,0.0521158092211253
161.0,245.666666666667,28833.0,213.637,212.664,0.973000000000013,1.21107480456871,0.11717462232181
162.0,248.666666666667,29013.0,213.686,213.31,0.376000000000005,0.46825653434884,0.0453050318238471
163.0,251.666666666667,29193.0,213.665,213.859,-0.194000000000017,-0.241732124148385,-0.0233882087574457
164.0,254.666666666667,29373.0,213.546,212.976,0.569999999999993,0.710628986687547,0.0687551939912556
165.0,257.666666666667,29553.0,213.45,213.203,0.246999999999986,0.308105358349809,0.0298099909797244
166.0,260.666666666667,29733.0,213.624,212.909,0.715000000000003,0.892362699753237,0.0863384011649825
167.0,263.666666666667,29913.0,212.862,212.125,0.736999999999995,0.920311353093382,0.0890425057233304
168.0,266.666666666667,30093.0,212.989,212.1,0.88900000000001,1.11070788586432,0.107463863128054
169.0,269.666666666667,30273.0,210.683,210.125,0.557999999999993,0.697528561448269,0.0674876939376861
170.0,272.666666666667,30453.0,212.963,212.175,0.787999999999983,0.985559017883329,0.0953553861914076
171.0,275.666666666667,30633.0,212.304,212.025,0.278999999999996,0.34913081747892,0.0337793103486831
172.0,278.666666666667,30813.0,210.182,209.907,0.274999999999977,0.344304897808544,0.0333123901282322
173.0,281.666666666667,30993.0,210.307,209.49,0.816999999999979,1.02342982586929,0.099019484896159
174.0,284.666666666667,31173.0,210.021,209.386,0.634999999999991,0.795855542582902,0.077001083890999
175.0,287.666666666667,31353.0,211.809,211.686,0.12299999999999,0.15423720914553,0.0149228492421932
176.0,290.666666666667,31533.0,211.89,211.315,0.574999999999989,0.721397208144792,0.069797047291787
177.0,293.666666666667,31713.0,209.294,208.574,0.719999999999999,0.903775849319146,0.0874426529294835
178.0,296.666666666667,31893.0,209.151,208.597,0.554000000000002,0.6957587847961,0.0673164634653573
179.0,299.666666666667,32073.0,210.972,210.279,0.693000000000012,0.870766995675963,0.0842489608930173
180.0,302.666666666667,32253.0,208.586,208.137,0.449000000000012,0.564461035403928,0.0546130663352269
181.0,305.666666666667,32433.0,211.352,210.754,0.598000000000013,0.7521541230529,0.0727728584262817
182.0,308.666666666667,32613.0,208.495,207.752,0.742999999999995,0.935000071468308,0.0904636772492184
183.0,311.666666666667,32793.0,210.072,209.208,0.864000000000004,1.0878096505504,0.105248399587221
184.0,314.666666666667,32973.0,209.593,209.097,0.495999999999981,0.624793284361189,0.0604503675974805
185.0,317.666666666667,33153.0,207.865,207.492,0.373000000000019,0.470086968815937,0.0454821310967887
186.0,320.666666666667,33333.0,207.47,207.129,0.341000000000008,0.429969521898786,0.0416006642598111
187.0,323.666666666667,33513.0,209.706,209.397,0.308999999999997,0.389811734322357,0.037715294359623
188.0,326.666666666667,33693.0,207.971,207.242,0.729000000000013,0.920102755998964,0.0890223234144725
189.0,329.666666666667,33873.0,208.247,207.337,0.910000000000025,1.1491105790858,0.111179423106177
190.0,332.666666666667,34053.0,207.686,207.105,0.581000000000017,0.734019263752895,0.071018263845236
191.0,335.666666666667,34233.0,209.848,209.145,0.703000000000003,0.888580598914389,0.0859724731185041
192.0,338.666666666667,34413.0,207.682,206.929,0.752999999999986,0.952238967168365,0.092131585032684
193.0,341.666666666667,34593.0,209.629,208.725,0.903999999999996,1.14374230283417,0.110660028482549
194.0,344.666666666667,34773.0,209.415,209.156,0.258999999999986,0.327844287499712,0.0317197834710317
195.0,347.666666666667,34953.0,209.71,208.955,0.754999999999995,0.956141671174994,0.0925091817478377
196.0,350.666666666667,35133.0,209.6,208.671,0.929000000000002,1.17705781393605,0.113883390421955
197.0,353.666666666667,35313.0,207.479,206.828,0.65100000000001,0.825218994930686,0.0798420739156749
198.0,356.666666666667,35493.0,206.897,206.587,0.310000000000002,0.393147429903981,0.0380380315419034
199.0,359.666666666667,35673.0,209.625,208.935,0.689999999999998,0.875483050485547,0.0847052514037912
200.0,362.666666666667,35853.0,207.496,206.633,0.863,1.09550344842133,0.105992794447345
201.0,365.666666666667,36033.0,NA,NA,0.0,0.0,0.0
202.0,368.666666666667,36213.0,NA,NA,0.0,0.0,0.0
203.0,371.666666666667,36393.0,NA,NA,0.0,0.0,0.0
204.0,374.666666666667,36573.0,NA,NA,0.0,0.0,0.0
205.0,377.666666666667,36753.0,NA,NA,0.0,0.0,0.0
206.0,380.666666666667,36933.0,NA,NA,0.0,0.0,0.0
207.0,383.666666666667,37113.0,NA,NA,0.0,0.0,0.0
208.0,386.666666666667,37293.0,NA,NA,0.0,0.0,0.0
209.0,389.666666666667,37473.0,NA,NA,0.0,0.0,0.0
210.0,392.666666666667,37653.0,NA,NA,0.0,0.0,0.0
211.0,395.666666666667,37833.0,NA,NA,0.0,0.0,0.0
212.0,398.666666666667,38013.0,NA,NA,0.0,0.0,0.0
