"Frame","Time (aligned)","Time [ s]","Intensity Ch3-T2","background","Intensity (bg-subst)","bleach-Corrected","Normalized"
1.0,-12.3333333333333,0.0,291.049,278.612,12.437,12.437,0.948087007237577
2.0,-9.33333333333333,180.0,286.29,273.019,13.271,13.315074641512,1.01502366069117
3.0,-6.33333333333333,360.0,284.307,270.988,13.319,13.4069672980936,1.02202874501742
4.0,-3.33333333333333,540.0,284.79,271.593,13.197,13.32700100609,1.01593282136497
5.0,-0.333333333333333,720.0,283.056,270.121,12.935,13.1039287818857,0.998927765688864
6.0,3.21666666666667,933.0,280.512,268.125,12.387,12.5880652440466,0.959602886881044
7.0,6.21666666666667,1113.0,281.092,268.467,12.625,12.869514186132,0.981058067808275
8.0,9.21666666666667,1293.0,279.422,266.109,13.313,13.6120977499337,1.0376660784723
9.0,12.2166666666667,1473.0,277.388,264.076,13.312,13.6518503124399,1.04069646264989
10.0,15.2166666666667,1653.0,276.824,263.503,13.321,13.7014053649252,1.04447410206488
11.0,18.2166666666667,1833.0,275.995,263.045,12.95,13.3585525764233,1.01833803434969
12.0,21.2166666666667,2013.0,276.725,264.051,12.674,13.1113143102171,0.999490773122535
13.0,24.2166666666667,2193.0,274.126,260.867,13.259,13.7552344499658,1.0485775559636
14.0,27.2166666666667,2373.0,273.347,259.702,13.645,14.1950701840653,1.08210674667025
15.0,30.2166666666667,2553.0,270.838,257.478,13.36,13.9366881073691,1.06240997977962
16.0,33.2166666666667,2733.0,269.561,256.94,12.621,13.2013580698273,1.00635491387748
17.0,36.2166666666667,2913.0,268.2,255.543,12.657,13.274256560808,1.01191205081935
18.0,39.2166666666667,3093.0,270.029,255.696,14.333,15.0714219690536,1.14891206476279
19.0,42.2166666666667,3273.0,268.166,254.209,13.957,14.7139840372844,1.1216641545751
20.0,45.2166666666667,3453.0,267.51,253.836,13.674,14.4523501439096,1.10171949790857
21.0,48.2166666666667,3633.0,265.831,251.994,13.837,14.6613313849211,1.11765038151068
22.0,51.2166666666667,3813.0,265.622,252.483,13.139,13.9561770511377,1.06389564468046
23.0,54.2166666666667,3993.0,264.848,251.443,13.405,14.2734194034497,1.088079398992
24.0,57.2166666666667,4173.0,262.925,249.276,13.649,14.5681262675284,1.11054524676692
25.0,60.2166666666667,4353.0,262.884,249.623,13.261,14.1874921603222,1.08152906508696
26.0,63.2166666666667,4533.0,264.362,250.065,14.297,15.3315424723359,1.16874135393847
27.0,66.2166666666667,4713.0,260.372,247.471,12.901,13.8663191842476,1.05704567474426
28.0,69.2166666666667,4893.0,262.642,249.123,13.519,14.563468171458,1.11019015467375
29.0,72.2166666666667,5073.0,261.082,248.016,13.066,14.106883858381,1.0753842002686
30.0,75.2166666666667,5253.0,261.947,248.721,13.226,14.3110382709754,1.09094712911406
31.0,78.2166666666667,5433.0,259.417,245.996,13.421,14.5535152420449,1.10943143126291
32.0,81.2166666666667,5613.0,258.453,244.263,14.19,15.4202801533721,1.17550593080129
33.0,84.2166666666667,5793.0,259.621,246.786,12.835,13.9771695785927,1.06549592951838
34.0,87.2166666666667,5973.0,257.888,244.564,13.324,14.5397970772401,1.10838567956921
35.0,90.2166666666667,6153.0,256.396,243.961,12.435,13.5974337064041,1.03654822134085
36.0,93.2166666666667,6333.0,257.247,244.962,12.285,13.4604955431677,1.02610926553483
37.0,96.2166666666667,6513.0,258.007,244.06,13.947,15.3118938767522,1.16724351859367
38.0,99.2166666666667,6693.0,256.344,243.78,12.564,13.8205700766905,1.05355816694756
39.0,102.216666666667,6873.0,255.25,242.311,12.939,14.260559403497,1.08709906620529
40.0,105.216666666667,7053.0,256.154,242.791,13.363,14.755901078494,1.12485953948727
41.0,108.216666666667,7233.0,253.985,241.15,12.835,14.1994607339788,1.08244144340802
42.0,111.216666666667,7413.0,255.385,242.28,13.105,14.5249853125184,1.10725656147909
43.0,114.216666666667,7593.0,252.783,239.412,13.371,14.8468370444425,1.13179169417139
44.0,117.216666666667,7773.0,251.535,238.358,13.177,14.6577341775233,1.11737616219764
45.0,120.216666666667,7953.0,253.737,240.52,13.217,14.7282951730473,1.12275510913614
46.0,123.216666666667,8133.0,253.217,239.781,13.436,14.9985098641268,1.14335389001394
47.0,126.216666666667,8313.0,253.202,239.799,13.403,14.9874614499266,1.14251165652083
48.0,129.216666666667,8493.0,251.051,237.398,13.653,15.2929647759933,1.16580053117803
49.0,132.216666666667,8673.0,250.012,236.739,13.273,14.8922389991795,1.13525273810396
50.0,135.216666666667,8853.0,251.204,238.522,12.682,14.2526591214508,1.08649681849592
51.0,138.216666666667,9033.0,250.324,237.107,13.217,14.8781316697188,1.1341773199349
52.0,141.216666666667,9213.0,252.087,238.429,13.658,15.3992742886686,1.17390462924937
53.0,144.216666666667,9393.0,251.542,238.36,13.182,14.8861550287059,1.13478894994295
54.0,147.216666666667,9573.0,250.61,237.424,13.186,14.9139607060067,1.13690860913539
55.0,150.216666666667,9753.0,250.436,237.34,13.096,14.8350171274886,1.13089064812406
56.0,153.216666666667,9933.0,249.312,235.776,13.536,15.3567785643724,1.17066513065097
57.0,156.216666666667,10113.0,250.35,236.891,13.459,15.2923434916076,1.16575316994511
58.0,159.216666666667,10293.0,250.31,236.607,13.703,15.5926389212639,1.18864504058835
59.0,162.216666666667,10473.0,250.38,237.346,13.034,14.8530548053582,1.13226568133375
60.0,165.216666666667,10653.0,248.683,235.55,13.133,14.9874467274218,1.14251053420712
61.0,168.216666666667,10833.0,249.161,236.202,12.959,14.8099136032561,1.12897697720979
62.0,171.216666666667,11013.0,249.338,235.63,13.708,15.6878810674138,1.19590546040874
63.0,174.216666666667,11193.0,248.719,235.476,13.243,15.1767123094696,1.15693847014479
64.0,177.216666666667,11373.0,248.746,234.357,14.389,16.5125892730711,1.25877392825033
65.0,180.216666666667,11553.0,245.396,232.239,13.157,15.1191346656134,1.15254925923803
66.0,183.216666666667,11733.0,245.805,232.205,13.6,15.6490093789661,1.19294222628743
67.0,186.216666666667,11913.0,247.06,234.161,12.899,14.8619018271483,1.13294010011737
68.0,189.216666666667,12093.0,245.403,232.153,13.25,15.2861205242149,1.16527878588694
69.0,192.216666666667,12273.0,246.306,231.783,14.523,16.7761992998722,1.27886922787143
70.0,195.216666666667,12453.0,246.5,233.595,12.905,14.9260192305147,1.1378278445147
71.0,198.216666666667,12633.0,246.757,232.385,14.372,16.6435122743791,1.26875434125095
72.0,201.216666666667,12813.0,244.443,230.801,13.642,15.8176062636902,1.20579456333557
73.0,204.216666666667,12993.0,244.256,230.502,13.754,15.9668762721673,1.21717359007894
74.0,207.216666666667,13173.0,246.944,232.764,14.18,16.4811987141396,1.25638098935245
75.0,210.216666666667,13353.0,246.825,232.919,13.906,16.1819156527442,1.23356629272182
76.0,213.216666666667,13533.0,245.077,230.789,14.288,16.6459247442894,1.26893824664431
77.0,216.216666666667,13713.0,244.633,230.151,14.482,16.8914741819022,1.2876567664992
78.0,219.216666666667,13893.0,243.97,229.202,14.768,17.2447570221478,1.31458792921664
79.0,222.216666666667,14073.0,246.043,231.367,14.676,17.1566880381362,1.30787432790748
80.0,225.216666666667,14253.0,244.496,229.727,14.769,17.2846773137518,1.31763109957886
81.0,228.216666666667,14433.0,243.71,229.823,13.887,16.2703629355588,1.24030873218969
82.0,231.216666666667,14613.0,245.693,231.248,14.445,16.9425689195482,1.29155177790873
83.0,234.216666666667,14793.0,243.18,228.467,14.713,17.2754851507883,1.31693037028127
84.0,237.216666666667,14973.0,244.672,229.951,14.721,17.3032677378622,1.3190482692788
85.0,240.216666666667,15153.0,243.874,229.92,13.954,16.4189706103363,1.25163726846309
86.0,243.216666666667,15333.0,243.85,229.214,14.636,17.2393422498833,1.31417515481516
87.0,246.216666666667,15513.0,241.694,227.108,14.586,17.1980961596668,1.3110309172793
88.0,249.216666666667,15693.0,240.953,226.419,14.534,17.1541844569992,1.3076834769991
89.0,252.216666666667,15873.0,242.66,228.859,13.801,16.3053906568586,1.24297893621458
90.0,255.216666666667,16053.0,240.202,226.474,13.728,16.2352404050594,1.23763130074901
91.0,258.216666666667,16233.0,241.815,227.716,14.099,16.6903607147404,1.27232565246876
92.0,261.216666666667,16413.0,241.777,227.329,14.448,17.1201021141688,1.30508534027692
93.0,264.216666666667,16593.0,239.035,224.588,14.447,17.1353440792894,1.30624725304492
94.0,267.216666666667,16773.0,240.636,226.413,14.223,16.8856710572427,1.28721438754197
95.0,270.216666666667,16953.0,240.999,226.206,14.793,17.5788650759731,1.3400573756141
96.0,273.216666666667,17133.0,237.928,223.65,14.278,16.9826320236399,1.29460583503336
97.0,276.216666666667,17313.0,237.89,223.551,14.339,17.0708520945063,1.30133095386957
98.0,279.216666666667,17493.0,237.738,223.66,14.078,16.7753563666487,1.27880497008924
99.0,282.216666666667,17673.0,237.717,223.759,13.958,16.6473178541484,1.26904444503275
100.0,285.216666666667,17853.0,237.756,223.924,13.832,16.5117172630199,1.25870745390766
101.0,288.216666666667,18033.0,238.147,223.719,14.428,17.2383446460327,1.31409910631078
102.0,291.216666666667,18213.0,239.851,225.498,14.353,17.1636766625148,1.30840707889018
103.0,294.216666666667,18393.0,239.767,225.039,14.728,17.6272982834223,1.34374949547431
104.0,297.216666666667,18573.0,239.498,224.758,14.74,17.6567186233937,1.34599224228426
105.0,300.216666666667,18753.0,239.256,224.444,14.812,17.7579577026692,1.35370981530716
106.0,303.216666666667,18933.0,238.129,224.01,14.119,16.9412865794808,1.29145402363063
107.0,306.216666666667,19113.0,238.34,223.718,14.622,17.5593635745445,1.3385707534282
108.0,309.216666666667,19293.0,236.45,221.608,14.842,17.8381754112534,1.35982490473862
109.0,312.216666666667,19473.0,238.045,224.09,13.955,16.7857361131813,1.27959623026661
110.0,315.216666666667,19653.0,236.008,221.296,14.712,17.7105241649196,1.35009390143342
111.0,318.216666666667,19833.0,237.733,222.799,14.934,17.9920917721795,1.37155812834523
112.0,321.216666666667,20013.0,235.756,221.586,14.17,17.0851147073956,1.30241820947539
113.0,324.216666666667,20193.0,237.895,223.497,14.398,17.3735889879825,1.32440894014571
114.0,327.216666666667,20373.0,237.641,222.752,14.889,17.9799746856271,1.37063442871301
115.0,330.216666666667,20553.0,236.605,222.256,14.349,17.3411645686963,1.32193718886787
116.0,333.216666666667,20733.0,234.38,219.529,14.851,17.961490135108,1.36922532988035
117.0,336.216666666667,20913.0,236.774,222.167,14.607,17.6796945582302,1.34774372457884
118.0,339.216666666667,21093.0,235.044,220.714,14.33,17.3573754472037,1.32317296303276
119.0,342.216666666667,21273.0,234.751,220.179,14.572,17.6635625052677,1.34651395937712
120.0,345.216666666667,21453.0,237.185,221.678,15.507,18.8107182447614,1.43396297858529
121.0,348.216666666667,21633.0,236.997,222.129,14.868,18.0486962563255,1.37587315415291
122.0,351.216666666667,21813.0,235.042,219.405,15.637,18.9958924336638,1.44807902285433
123.0,354.216666666667,21993.0,234.525,218.732,15.793,19.1991155752778,1.46357095982741
124.0,357.216666666667,22173.0,235.304,220.194,15.11,18.3818308091353,1.4012683894332
125.0,360.216666666667,22353.0,233.044,218.42,14.624,17.8030999635325,1.35715106247303
126.0,363.216666666667,22533.0,235.631,220.222,15.409,18.7718271535578,1.43099826536928
127.0,366.216666666667,22713.0,232.714,217.832,14.882,18.1423510485869,1.38301256813607
128.0,369.216666666667,22893.0,231.975,217.019,14.956,18.2450676583701,1.39084277503187
129.0,372.216666666667,23073.0,231.076,216.551,14.525,17.7313395090913,1.35168067938312
130.0,375.216666666667,23253.0,233.303,218.269,15.034,18.3650876216574,1.39999203673499
131.0,378.216666666667,23433.0,230.775,215.627,15.148,18.5167398630309,1.41155266386892
132.0,381.216666666667,23613.0,230.771,216.195,14.576,17.8293749107959,1.35915403233041
133.0,384.216666666667,23793.0,232.369,217.769,14.6,17.8705098549324,1.36228979707104
134.0,387.216666666667,23973.0,232.813,217.473,15.34,18.7885653509634,1.43227423766845
135.0,390.216666666667,24153.0,229.597,215.18,14.417,17.6695388236304,1.34696954109222
136.0,393.216666666667,24333.0,231.358,216.607,14.751,18.0905494929976,1.37906367517082
137.0,396.216666666667,24513.0,229.585,214.456,15.129,18.5660048999411,1.41530819505857
138.0,399.216666666667,24693.0,230.703,216.284,14.419,17.7059536645713,1.34974548686425
139.0,402.216666666667,24873.0,231.281,216.304,14.977,18.4027613539848,1.40286394926484
140.0,405.216666666667,25053.0,229.444,213.965,15.479,19.0315045905611,1.45079377908606
141.0,408.216666666667,25233.0,229.441,213.732,15.709,19.3263097453839,1.47326711967898
142.0,411.216666666667,25413.0,229.079,213.587,15.492,19.0711202847062,1.45381372962893
143.0,414.216666666667,25593.0,228.633,213.225,15.408,18.9793568548829,1.4468184964091
144.0,417.216666666667,25773.0,231.118,215.488,15.63,19.2645524030964,1.46855928548872
145.0,420.216666666667,25953.0,230.903,215.813,15.09,18.6102479775618,1.41868089643771
146.0,423.216666666667,26133.0,230.891,215.86,15.031,18.5486392942107,1.41398439469145
147.0,426.216666666667,26313.0,229.005,213.86,15.145,18.700492200406,1.42556031873865
148.0,429.216666666667,26493.0,230.19,215.174,15.016,18.552222664013,1.41425755914845
149.0,432.216666666667,26673.0,228.082,213.56,14.522,17.9524791495444,1.36853841194714
150.0,435.216666666667,26853.0,230.134,215.261,14.873,18.3971817490006,1.40243860947301
151.0,438.216666666667,27033.0,228.502,213.427,15.075,18.6579191357569,1.42231492439499
152.0,441.216666666667,27213.0,229.772,215.103,14.669,18.1659465133037,1.38481127791558
153.0,444.216666666667,27393.0,229.259,214.24,15.019,18.6100987657709,1.41866952184896
154.0,447.216666666667,27573.0,227.401,212.321,15.08,18.6963861877628,1.42524731260867
155.0,450.216666666667,27753.0,229.401,214.058,15.343,19.0332888897281,1.45092979829144
156.0,453.216666666667,27933.0,230.146,215.056,15.09,18.7300357058748,1.42781245459804
157.0,456.216666666667,28113.0,228.848,212.815,16.033,19.9117110594196,1.51789294422325
158.0,459.216666666667,28293.0,229.774,214.666,15.108,18.7734386373305,1.43112111065571
159.0,462.216666666667,28473.0,229.885,214.775,15.11,18.7863774070171,1.43210744815105
160.0,465.216666666667,28653.0,227.482,212.612,14.87,18.4982210331782,1.4101409518827
161.0,468.216666666667,28833.0,227.377,212.149,15.228,18.9540052661584,1.44488591524945
162.0,471.216666666667,29013.0,227.128,211.967,15.161,18.8809503118688,1.43931685092716
163.0,474.216666666667,29193.0,226.746,211.707,15.039,18.7392237890064,1.42851287288529
164.0,477.216666666667,29373.0,227.541,211.502,16.039,19.9961023113714,1.52432618773053
165.0,480.216666666667,29553.0,229.707,213.242,16.465,20.5382782397972,1.56565689074391
166.0,483.216666666667,29733.0,227.478,211.303,16.175,20.187365969942,1.5389064393706
167.0,486.216666666667,29913.0,226.933,210.917,16.016,19.9996019418503,1.5245929686413
168.0,489.216666666667,30093.0,226.682,210.687,15.995,19.9839962141727,1.52340332582955
169.0,492.216666666667,30273.0,226.813,210.799,16.014,20.0183196828543,1.52601984385644
170.0,495.216666666667,30453.0,226.259,210.681,15.578,19.4835512443995,1.48525382243811
171.0,498.216666666667,30633.0,228.207,211.845,16.362,20.4748331024737,1.56082039397067
172.0,501.216666666667,30813.0,225.258,209.932,15.326,19.1884249593243,1.46275600171172
173.0,504.216666666667,30993.0,227.364,211.695,15.669,19.6280562320029,1.49626960608592
174.0,507.216666666667,31173.0,225.094,209.955,15.139,18.9739481246657,1.44640618259994
175.0,510.216666666667,31353.0,225.517,209.302,16.215,20.3329784251624,1.55000664656577
176.0,513.216666666667,31533.0,227.128,211.563,15.565,19.5279087735198,1.48863524858848
177.0,516.216666666667,31713.0,224.727,209.346,15.381,19.3069115810803,1.47178837500257
178.0,519.216666666667,31893.0,224.369,208.672,15.697,19.7135841966504,1.50278950252701
179.0,522.216666666667,32073.0,223.973,208.537,15.436,19.3956123308138,1.47855013654913
180.0,525.216666666667,32253.0,225.017,209.917,15.1,18.982988050332,1.4470953066709
181.0,528.216666666667,32433.0,225.736,210.137,15.599,19.6201541229129,1.49566721909886
182.0,531.216666666667,32613.0,223.815,207.684,16.131,20.2994430051889,1.5474502024105
183.0,534.216666666667,32793.0,225.331,210.295,15.036,18.9309096130506,1.44312530669151
184.0,537.216666666667,32973.0,225.689,209.688,16.001,20.1558817400479,1.53650635982605
185.0,540.216666666667,33153.0,224.63,209.203,15.427,19.4424441499279,1.48212018070989
186.0,543.216666666667,33333.0,223.345,207.553,15.792,19.9122542223621,1.51793435016749
187.0,546.216666666667,33513.0,225.207,209.959,15.248,19.2357583331629,1.46636427997377
188.0,549.216666666667,33693.0,225.235,209.734,15.501,19.5644894660352,1.49142383741935
189.0,552.216666666667,33873.0,225.193,209.27,15.923,20.1069096162448,1.53277315774399
190.0,555.216666666667,34053.0,224.371,209.232,15.139,19.1261921410581,1.45801192143336
191.0,558.216666666667,34233.0,223.319,207.99,15.329,19.3756073979496,1.47702513719807
192.0,561.216666666667,34413.0,223.641,208.037,15.604,19.7327182519196,1.50424811386386
193.0,564.216666666667,34593.0,223.146,207.509,15.637,19.7839583953739,1.50815420972766
194.0,567.216666666667,34773.0,222.273,207.294,14.979,18.960538928411,1.44538398393896
195.0,570.216666666667,34953.0,224.065,209.0,15.065,19.0785089751674,1.45437697811544
196.0,573.216666666667,35133.0,224.693,208.646,16.047,20.3318048872248,1.54991718640085
197.0,576.216666666667,35313.0,221.847,206.552,15.295,19.3882097196078,1.47798582686801
198.0,579.216666666667,35493.0,224.155,208.211,15.944,20.2204600722226,1.54142924136372
199.0,582.216666666667,35673.0,224.022,208.979,15.043,19.0867993166002,1.45500896050653
200.0,585.216666666667,35853.0,224.386,208.472,15.914,20.2014390245388,1.53997924472682
201.0,588.216666666667,36033.0,222.562,206.328,16.234,20.6173196796054,1.57168231183546
202.0,591.216666666667,36213.0,223.789,207.966,15.823,20.1047474143925,1.53260833057642
203.0,594.216666666667,36393.0,223.621,208.076,15.545,19.7607343790649,1.50638381589325
204.0,597.216666666667,36573.0,223.322,207.945,15.377,19.5562676052421,1.49079707538725
205.0,600.216666666667,36753.0,221.478,205.953,15.525,19.7536530551509,1.50584399831692
206.0,603.216666666667,36933.0,223.651,207.447,16.204,20.6271376399962,1.57243074640039
207.0,606.216666666667,37113.0,221.451,205.516,15.935,20.2940718051723,1.54704074957228
208.0,609.216666666667,37293.0,222.93,207.225,15.705,20.0103618583394,1.52541320961759
209.0,612.216666666667,37473.0,220.555,204.914,15.641,19.937967699391,1.51989451849442
210.0,615.216666666667,37653.0,222.734,206.683,16.051,20.469976348704,1.56045015796952
211.0,618.216666666667,37833.0,222.168,206.25,15.918,20.3096357147201,1.54822720453924
212.0,621.216666666667,38013.0,221.475,206.313,15.162,19.3538796197195,1.47536880333652
213.0,624.216666666667,38193.0,220.139,204.281,15.858,20.2515094127039,1.54379616878139
214.0,627.216666666667,38373.0,219.964,204.689,15.275,19.515837169261,1.48771501612452
215.0,630.216666666667,38553.0,221.054,206.032,15.022,19.2012833573925,1.4637362123849
216.0,633.216666666667,38733.0,219.656,204.11,15.546,19.8800399466135,1.51547861837649
217.0,636.216666666667,38913.0,221.043,206.194,14.849,18.9972813137181,1.44818489879983
218.0,639.216666666667,39093.0,218.769,203.635,15.134,19.3706060493213,1.47664387856229
219.0,642.216666666667,39273.0,220.337,205.314,15.023,19.2371602285347,1.46647114809208
220.0,645.216666666667,39453.0,220.28,205.33,14.95,19.1522541047103,1.4599986553018
221.0,648.216666666667,39633.0,218.038,203.159,14.879,19.0698138235064,1.45371413656879
222.0,651.216666666667,39813.0,218.512,202.886,15.626,20.0361439516442,1.52737860864322
223.0,654.216666666667,39993.0,218.037,202.705,15.332,19.6679168042829,1.49930822397446
224.0,657.216666666667,40173.0,217.853,202.258,15.595,20.0141791036375,1.52570420267626
225.0,660.216666666667,40353.0,217.792,202.569,15.223,19.5454255499175,1.48997057287177
226.0,663.216666666667,40533.0,219.747,204.655,15.092,19.3858030655054,1.47780236482046
227.0,666.216666666667,40713.0,217.783,202.491,15.292,19.6513798295778,1.49804759111629
228.0,669.216666666667,40893.0,217.961,202.431,15.53,19.9660257750422,1.52203341830732
229.0,672.216666666667,41073.0,218.249,202.773,15.476,19.9053565477245,1.51740853238958
