"Frame","Time (aligned)","Time [ s]","Intensity Ch3-T2","background","Intensity (bg-subst)","bleach-Corrected","Normalized"
1.0,-12.3333333333333,0.0,274.97,265.507,9.46300000000002,9.46300000000002,0.954008241301448
2.0,-9.33333333333333,180.0,273.568,263.319,10.249,10.2830382036663,1.03668003718855
3.0,-6.33333333333333,360.0,270.217,260.549,9.66800000000001,9.73185373060805,0.981112613562327
4.0,-3.33333333333333,540.0,269.063,259.202,9.86099999999999,9.95813873767169,1.00392543841931
5.0,-0.333333333333333,720.0,269.88,259.851,10.029,10.1599769426774,1.02427366952836
6.0,3.21666666666667,933.0,279.201,269.435,9.76600000000002,9.92452128629687,1.00053630963741
7.0,6.21666666666667,1113.0,273.421,263.864,9.55700000000002,9.74209481796944,0.982145064343543
8.0,9.21666666666667,1293.0,272.589,262.907,9.68200000000002,9.89952155148033,0.998015972213199
9.0,12.2166666666667,1473.0,268.453,258.909,9.54399999999998,9.7876547011664,0.986738164210671
10.0,15.2166666666667,1653.0,264.117,257.098,7.01900000000001,7.21944030150964,0.727824743234068
11.0,18.2166666666667,1833.0,260.402,257.826,2.57599999999996,2.65726883682363,0.267891405440478
12.0,21.2166666666667,2013.0,256.116,255.219,0.896999999999991,0.927950839219233,0.0935509614432782
13.0,24.2166666666667,2193.0,255.879,254.399,1.47999999999999,1.53539082781124,0.154789760472427
14.0,27.2166666666667,2373.0,256.56,255.784,0.77600000000001,0.807282848137404,0.0813858702509126
15.0,30.2166666666667,2553.0,258.743,257.476,1.267,1.32169040658956,0.1332456451797
16.0,33.2166666666667,2733.0,255.511,254.288,1.22299999999998,1.27923785115273,0.128965809213194
17.0,36.2166666666667,2913.0,260.096,258.528,1.56799999999998,1.64446822211794,0.165786350677254
18.0,39.2166666666667,3093.0,262.444,261.166,1.27800000000002,1.34384129466621,0.135478777355254
19.0,42.2166666666667,3273.0,262.613,261.802,0.810999999999979,0.854986104050825,0.0861950533089614
20.0,45.2166666666667,3453.0,261.104,260.032,1.072,1.13302028333123,0.114224948521578
21.0,48.2166666666667,3633.0,262.192,261.253,0.939000000000021,0.994940389567192,0.100304483911103
22.0,51.2166666666667,3813.0,261.015,260.053,0.961999999999989,1.02183136640492,0.103015486079532
23.0,54.2166666666667,3993.0,258.198,257.121,1.077,1.14677155520442,0.115611277032135
24.0,57.2166666666667,4173.0,257.243,256.132,1.11099999999999,1.18581495224734,0.119547420173564
25.0,60.2166666666667,4353.0,258.087,257.132,0.954999999999984,1.0217219676576,0.103004457092263
26.0,63.2166666666667,4533.0,257.376,256.134,1.24199999999996,1.33187212356722,0.134272110561427
27.0,66.2166666666667,4713.0,254.39,253.678,0.711999999999989,0.76527550261097,0.0771509179284552
28.0,69.2166666666667,4893.0,255.44,254.733,0.706999999999994,0.761622309136825,0.0767826228125931
29.0,72.2166666666667,5073.0,254.397,253.57,0.826999999999998,0.892881750411835,0.0900154864631249
30.0,75.2166666666667,5253.0,251.785,251.228,0.556999999999988,0.60269532110488,0.060760467433993
31.0,78.2166666666667,5433.0,251.25,250.696,0.554000000000002,0.600748636025103,0.0605642132218695
32.0,81.2166666666667,5613.0,251.156,250.429,0.727000000000004,0.7900312664906,0.0796466595284636
33.0,84.2166666666667,5793.0,252.835,251.227,1.608,1.7510937812526,0.176535760182468
34.0,87.2166666666667,5973.0,250.864,250.164,0.700000000000017,0.763874058396001,0.0770096319376695
35.0,90.2166666666667,6153.0,249.794,249.033,0.761000000000024,0.832138886254433,0.0838917209546798
36.0,93.2166666666667,6333.0,248.659,248.048,0.61099999999999,0.669463799501448,0.0674917026289084
37.0,96.2166666666667,6513.0,247.5,246.802,0.698000000000008,0.766308304723107,0.0772550394255082
38.0,99.2166666666667,6693.0,247.644,246.37,1.274,1.4014172459172,0.141283271912394
39.0,102.216666666667,6873.0,246.356,245.256,1.09999999999999,1.21235144476749,0.122222685159242
40.0,105.216666666667,7053.0,243.495,242.583,0.912000000000006,1.00706291877472,0.101526611436138
41.0,108.216666666667,7233.0,244.976,243.502,1.47399999999999,1.63069771109347,0.164398082580003
42.0,111.216666666667,7413.0,241.768,241.158,0.610000000000014,0.676096225916553,0.0681603478217474
43.0,114.216666666667,7593.0,243.168,242.429,0.739000000000004,0.820567839042937,0.0827251908479213
44.0,117.216666666667,7773.0,241.805,240.721,1.084,1.20581193355356,0.121563407172116
45.0,120.216666666667,7953.0,241.242,240.782,0.45999999999998,0.512598606310167,0.0516774062030577
46.0,123.216666666667,8133.0,240.839,240.402,0.437000000000012,0.487819947203304,0.0491793564306444
47.0,126.216666666667,8313.0,241.054,240.082,0.972000000000008,1.08690685140109,0.109576042878965
48.0,129.216666666667,8493.0,242.449,241.703,0.746000000000009,0.835607684969686,0.0842414263928884
49.0,132.216666666667,8673.0,240.244,239.508,0.73599999999999,0.825788284743161,0.0832514878173054
50.0,135.216666666667,8853.0,241.813,241.18,0.632999999999981,0.711396721643124,0.0717191519901058
51.0,138.216666666667,9033.0,241.797,241.083,0.713999999999999,0.803736552332539,0.0810283519772221
52.0,141.216666666667,9213.0,239.339,238.638,0.700999999999993,0.790371304463071,0.0796809403091983
53.0,144.216666666667,9393.0,241.142,240.271,0.871000000000009,0.983601959490444,0.0991614049999084
54.0,147.216666666667,9573.0,241.009,239.979,1.02999999999997,1.16497645435966,0.117446596045784
55.0,150.216666666667,9753.0,238.549,237.71,0.838999999999999,0.950410764352697,0.0958152490556989
56.0,153.216666666667,9933.0,239.8,238.943,0.856999999999999,0.972278311884393,0.0980198163770863
57.0,156.216666666667,10113.0,237.549,236.847,0.701999999999998,0.797624276031542,0.08041214549257
58.0,159.216666666667,10293.0,239.706,238.721,0.984999999999985,1.12083115649454,0.11299610698544
59.0,162.216666666667,10473.0,236.931,236.312,0.619,0.705389053591893,0.0711134915407897
60.0,165.216666666667,10653.0,238.852,237.901,0.950999999999993,1.08528606089835,0.109412643587299
61.0,168.216666666667,10833.0,236.562,235.672,0.890000000000015,1.01711730124995,0.102540239645222
62.0,171.216666666667,11013.0,238.328,237.26,1.06800000000001,1.22225393784638,0.123221000704702
63.0,174.216666666667,11193.0,237.728,236.873,0.855000000000018,0.979845127584144,0.0987826616204522
64.0,177.216666666667,11373.0,237.73,236.726,1.00399999999999,1.15217455209974,0.116155977821088
65.0,180.216666666667,11553.0,235.143,233.998,1.14500000000001,1.31575657004846,0.13264742802206
66.0,183.216666666667,11733.0,234.198,233.407,0.790999999999997,0.91017400137957,0.0917587972455271
67.0,186.216666666667,11913.0,235.459,234.587,0.872000000000014,1.00469636353776,0.101288028196197
68.0,189.216666666667,12093.0,233.742,232.665,1.077,1.24250202298713,0.125262302627437
69.0,192.216666666667,12273.0,235.306,234.617,0.689000000000021,0.795896255430165,0.0802379358450108
70.0,195.216666666667,12453.0,235.034,234.436,0.597999999999985,0.691651259190049,0.0697285217556619
71.0,198.216666666667,12633.0,234.869,234.103,0.765999999999991,0.887067242010453,0.0894292993201433
72.0,201.216666666667,12813.0,234.549,233.771,0.77800000000002,0.90207430531823,0.0909422298995951
73.0,204.216666666667,12993.0,234.41,233.843,0.567000000000007,0.658224432624615,0.0663586107312534
74.0,207.216666666667,13173.0,234.306,233.689,0.617000000000019,0.717129732484092,0.0722971229918762
75.0,210.216666666667,13353.0,232.635,232.038,0.59699999999998,0.694707582675679,0.0700366436824689
76.0,213.216666666667,13533.0,234.094,233.544,0.549999999999983,0.640765580162296,0.0645985040914226
77.0,216.216666666667,13713.0,232.037,231.211,0.825999999999993,0.963427542760056,0.0971275299260165
78.0,219.216666666667,13893.0,233.881,232.76,1.12100000000001,1.30900410494501,0.131966681180911
79.0,222.216666666667,14073.0,233.22,232.295,0.925000000000011,1.0813529868681,0.109016132434545
80.0,225.216666666667,14253.0,231.33,230.188,1.14200000000002,1.33652254670628,0.134740940953501
81.0,228.216666666667,14433.0,230.407,230.155,0.25200000000001,0.295249619050981,0.0297654623074869
82.0,231.216666666667,14613.0,232.402,231.465,0.936999999999983,1.09900914348331,0.110796130206987
83.0,234.216666666667,14793.0,229.998,229.309,0.688999999999993,0.808999474539049,0.081558931197167
84.0,237.216666666667,14973.0,229.644,228.968,0.676000000000016,0.794579783356779,0.0801052162838301
85.0,240.216666666667,15153.0,229.509,228.422,1.08699999999999,1.27901827815933,0.128943673057084
86.0,243.216666666667,15333.0,231.037,230.402,0.635000000000019,0.747949052246257,0.0754041593486774
87.0,246.216666666667,15513.0,230.309,230.048,0.260999999999996,0.307740511289796,0.031024726191777
88.0,249.216666666667,15693.0,228.412,227.94,0.472000000000008,0.557091995576149,0.0561629879470268
89.0,252.216666666667,15873.0,228.311,227.478,0.832999999999998,0.98415987371663,0.0992176508806779
90.0,255.216666666667,16053.0,227.968,227.259,0.709000000000003,0.838489615908156,0.0845319670106799
91.0,258.216666666667,16233.0,228.09,226.955,1.13499999999999,1.34361014335983,0.135455473936542
92.0,261.216666666667,16413.0,229.761,228.43,1.33099999999999,1.57716333845228,0.159001038017751
93.0,264.216666666667,16593.0,228.827,228.165,0.662000000000006,0.785187082473155,0.0791582952174604
94.0,267.216666666667,16773.0,229.274,227.78,1.494,1.77368997817062,0.178813785975753
95.0,270.216666666667,16953.0,226.267,225.724,0.543000000000006,0.64525949680616,0.0650515563490542
96.0,273.216666666667,17133.0,226.268,225.454,0.813999999999993,0.968193197033391,0.0976079772949222
97.0,276.216666666667,17313.0,228.208,227.046,1.16200000000001,1.38338309043981,0.139465166348583
98.0,279.216666666667,17493.0,225.766,225.1,0.665999999999997,0.793606147193352,0.0800070595762386
99.0,282.216666666667,17673.0,227.602,226.711,0.890999999999991,1.06267088465726,0.107132704401788
100.0,285.216666666667,17853.0,227.341,226.523,0.818000000000012,0.97647373634691,0.0984427762748988
101.0,288.216666666667,18033.0,NA,NA,0.0,0.0,0.0
102.0,291.216666666667,18213.0,NA,NA,0.0,0.0,0.0
103.0,294.216666666667,18393.0,NA,NA,0.0,0.0,0.0
104.0,297.216666666667,18573.0,NA,NA,0.0,0.0,0.0
105.0,300.216666666667,18753.0,NA,NA,0.0,0.0,0.0
106.0,303.216666666667,18933.0,NA,NA,0.0,0.0,0.0
107.0,306.216666666667,19113.0,NA,NA,0.0,0.0,0.0
108.0,309.216666666667,19293.0,NA,NA,0.0,0.0,0.0
109.0,312.216666666667,19473.0,NA,NA,0.0,0.0,0.0
110.0,315.216666666667,19653.0,NA,NA,0.0,0.0,0.0
111.0,318.216666666667,19833.0,NA,NA,0.0,0.0,0.0
112.0,321.216666666667,20013.0,NA,NA,0.0,0.0,0.0
113.0,324.216666666667,20193.0,NA,NA,0.0,0.0,0.0
114.0,327.216666666667,20373.0,NA,NA,0.0,0.0,0.0
115.0,330.216666666667,20553.0,NA,NA,0.0,0.0,0.0
116.0,333.216666666667,20733.0,NA,NA,0.0,0.0,0.0
117.0,336.216666666667,20913.0,NA,NA,0.0,0.0,0.0
118.0,339.216666666667,21093.0,NA,NA,0.0,0.0,0.0
119.0,342.216666666667,21273.0,NA,NA,0.0,0.0,0.0
120.0,345.216666666667,21453.0,NA,NA,0.0,0.0,0.0
121.0,348.216666666667,21633.0,NA,NA,0.0,0.0,0.0
122.0,351.216666666667,21813.0,NA,NA,0.0,0.0,0.0
123.0,354.216666666667,21993.0,NA,NA,0.0,0.0,0.0
124.0,357.216666666667,22173.0,NA,NA,0.0,0.0,0.0
125.0,360.216666666667,22353.0,NA,NA,0.0,0.0,0.0
126.0,363.216666666667,22533.0,NA,NA,0.0,0.0,0.0
127.0,366.216666666667,22713.0,NA,NA,0.0,0.0,0.0
128.0,369.216666666667,22893.0,NA,NA,0.0,0.0,0.0
129.0,372.216666666667,23073.0,NA,NA,0.0,0.0,0.0
130.0,375.216666666667,23253.0,NA,NA,0.0,0.0,0.0
131.0,378.216666666667,23433.0,NA,NA,0.0,0.0,0.0
132.0,381.216666666667,23613.0,NA,NA,0.0,0.0,0.0
133.0,384.216666666667,23793.0,NA,NA,0.0,0.0,0.0
134.0,387.216666666667,23973.0,NA,NA,0.0,0.0,0.0
135.0,390.216666666667,24153.0,NA,NA,0.0,0.0,0.0
136.0,393.216666666667,24333.0,NA,NA,0.0,0.0,0.0
137.0,396.216666666667,24513.0,NA,NA,0.0,0.0,0.0
138.0,399.216666666667,24693.0,NA,NA,0.0,0.0,0.0
139.0,402.216666666667,24873.0,NA,NA,0.0,0.0,0.0
140.0,405.216666666667,25053.0,NA,NA,0.0,0.0,0.0
141.0,408.216666666667,25233.0,NA,NA,0.0,0.0,0.0
142.0,411.216666666667,25413.0,NA,NA,0.0,0.0,0.0
143.0,414.216666666667,25593.0,NA,NA,0.0,0.0,0.0
144.0,417.216666666667,25773.0,NA,NA,0.0,0.0,0.0
145.0,420.216666666667,25953.0,NA,NA,0.0,0.0,0.0
146.0,423.216666666667,26133.0,NA,NA,0.0,0.0,0.0
147.0,426.216666666667,26313.0,NA,NA,0.0,0.0,0.0
148.0,429.216666666667,26493.0,NA,NA,0.0,0.0,0.0
149.0,432.216666666667,26673.0,NA,NA,0.0,0.0,0.0
150.0,435.216666666667,26853.0,NA,NA,0.0,0.0,0.0
151.0,438.216666666667,27033.0,NA,NA,0.0,0.0,0.0
152.0,441.216666666667,27213.0,NA,NA,0.0,0.0,0.0
153.0,444.216666666667,27393.0,NA,NA,0.0,0.0,0.0
154.0,447.216666666667,27573.0,NA,NA,0.0,0.0,0.0
155.0,450.216666666667,27753.0,NA,NA,0.0,0.0,0.0
156.0,453.216666666667,27933.0,NA,NA,0.0,0.0,0.0
157.0,456.216666666667,28113.0,NA,NA,0.0,0.0,0.0
158.0,459.216666666667,28293.0,NA,NA,0.0,0.0,0.0
159.0,462.216666666667,28473.0,NA,NA,0.0,0.0,0.0
160.0,465.216666666667,28653.0,NA,NA,0.0,0.0,0.0
161.0,468.216666666667,28833.0,NA,NA,0.0,0.0,0.0
162.0,471.216666666667,29013.0,NA,NA,0.0,0.0,0.0
163.0,474.216666666667,29193.0,NA,NA,0.0,0.0,0.0
164.0,477.216666666667,29373.0,NA,NA,0.0,0.0,0.0
165.0,480.216666666667,29553.0,NA,NA,0.0,0.0,0.0
166.0,483.216666666667,29733.0,NA,NA,0.0,0.0,0.0
167.0,486.216666666667,29913.0,NA,NA,0.0,0.0,0.0
168.0,489.216666666667,30093.0,NA,NA,0.0,0.0,0.0
169.0,492.216666666667,30273.0,NA,NA,0.0,0.0,0.0
170.0,495.216666666667,30453.0,NA,NA,0.0,0.0,0.0
171.0,498.216666666667,30633.0,NA,NA,0.0,0.0,0.0
172.0,501.216666666667,30813.0,NA,NA,0.0,0.0,0.0
173.0,504.216666666667,30993.0,NA,NA,0.0,0.0,0.0
174.0,507.216666666667,31173.0,NA,NA,0.0,0.0,0.0
175.0,510.216666666667,31353.0,NA,NA,0.0,0.0,0.0
176.0,513.216666666667,31533.0,NA,NA,0.0,0.0,0.0
177.0,516.216666666667,31713.0,NA,NA,0.0,0.0,0.0
178.0,519.216666666667,31893.0,NA,NA,0.0,0.0,0.0
179.0,522.216666666667,32073.0,NA,NA,0.0,0.0,0.0
180.0,525.216666666667,32253.0,NA,NA,0.0,0.0,0.0
181.0,528.216666666667,32433.0,NA,NA,0.0,0.0,0.0
182.0,531.216666666667,32613.0,NA,NA,0.0,0.0,0.0
183.0,534.216666666667,32793.0,NA,NA,0.0,0.0,0.0
184.0,537.216666666667,32973.0,NA,NA,0.0,0.0,0.0
185.0,540.216666666667,33153.0,NA,NA,0.0,0.0,0.0
186.0,543.216666666667,33333.0,NA,NA,0.0,0.0,0.0
187.0,546.216666666667,33513.0,NA,NA,0.0,0.0,0.0
188.0,549.216666666667,33693.0,NA,NA,0.0,0.0,0.0
189.0,552.216666666667,33873.0,NA,NA,0.0,0.0,0.0
190.0,555.216666666667,34053.0,NA,NA,0.0,0.0,0.0
191.0,558.216666666667,34233.0,NA,NA,0.0,0.0,0.0
192.0,561.216666666667,34413.0,NA,NA,0.0,0.0,0.0
193.0,564.216666666667,34593.0,NA,NA,0.0,0.0,0.0
194.0,567.216666666667,34773.0,NA,NA,0.0,0.0,0.0
195.0,570.216666666667,34953.0,NA,NA,0.0,0.0,0.0
196.0,573.216666666667,35133.0,NA,NA,0.0,0.0,0.0
197.0,576.216666666667,35313.0,NA,NA,0.0,0.0,0.0
198.0,579.216666666667,35493.0,NA,NA,0.0,0.0,0.0
199.0,582.216666666667,35673.0,NA,NA,0.0,0.0,0.0
200.0,585.216666666667,35853.0,NA,NA,0.0,0.0,0.0
201.0,588.216666666667,36033.0,NA,NA,0.0,0.0,0.0
202.0,591.216666666667,36213.0,NA,NA,0.0,0.0,0.0
203.0,594.216666666667,36393.0,NA,NA,0.0,0.0,0.0
204.0,597.216666666667,36573.0,NA,NA,0.0,0.0,0.0
205.0,600.216666666667,36753.0,NA,NA,0.0,0.0,0.0
206.0,603.216666666667,36933.0,NA,NA,0.0,0.0,0.0
207.0,606.216666666667,37113.0,NA,NA,0.0,0.0,0.0
208.0,609.216666666667,37293.0,NA,NA,0.0,0.0,0.0
209.0,612.216666666667,37473.0,NA,NA,0.0,0.0,0.0
210.0,615.216666666667,37653.0,NA,NA,0.0,0.0,0.0
211.0,618.216666666667,37833.0,NA,NA,0.0,0.0,0.0
212.0,621.216666666667,38013.0,NA,NA,0.0,0.0,0.0
213.0,624.216666666667,38193.0,NA,NA,0.0,0.0,0.0
214.0,627.216666666667,38373.0,NA,NA,0.0,0.0,0.0
215.0,630.216666666667,38553.0,NA,NA,0.0,0.0,0.0
216.0,633.216666666667,38733.0,NA,NA,0.0,0.0,0.0
217.0,636.216666666667,38913.0,NA,NA,0.0,0.0,0.0
218.0,639.216666666667,39093.0,NA,NA,0.0,0.0,0.0
219.0,642.216666666667,39273.0,NA,NA,0.0,0.0,0.0
220.0,645.216666666667,39453.0,NA,NA,0.0,0.0,0.0
221.0,648.216666666667,39633.0,NA,NA,0.0,0.0,0.0
222.0,651.216666666667,39813.0,NA,NA,0.0,0.0,0.0
223.0,654.216666666667,39993.0,NA,NA,0.0,0.0,0.0
224.0,657.216666666667,40173.0,NA,NA,0.0,0.0,0.0
225.0,660.216666666667,40353.0,NA,NA,0.0,0.0,0.0
226.0,663.216666666667,40533.0,NA,NA,0.0,0.0,0.0
227.0,666.216666666667,40713.0,NA,NA,0.0,0.0,0.0
228.0,669.216666666667,40893.0,NA,NA,0.0,0.0,0.0
229.0,672.216666666667,41073.0,NA,NA,0.0,0.0,0.0
230.0,675.216666666667,41253.0,NA,NA,0.0,0.0,0.0
231.0,678.216666666667,41433.0,NA,NA,0.0,0.0,0.0
232.0,681.216666666667,41613.0,NA,NA,0.0,0.0,0.0
233.0,684.216666666667,41793.0,NA,NA,0.0,0.0,0.0
234.0,687.216666666667,41973.0,NA,NA,0.0,0.0,0.0
235.0,690.216666666667,42153.0,NA,NA,0.0,0.0,0.0
236.0,693.216666666667,42333.0,NA,NA,0.0,0.0,0.0
237.0,696.216666666667,42513.0,NA,NA,0.0,0.0,0.0
238.0,699.216666666667,42693.0,NA,NA,0.0,0.0,0.0
239.0,702.216666666667,42873.0,NA,NA,0.0,0.0,0.0
240.0,705.216666666667,43053.0,NA,NA,0.0,0.0,0.0
241.0,708.216666666667,43233.0,NA,NA,0.0,0.0,0.0
242.0,711.216666666667,43413.0,NA,NA,0.0,0.0,0.0
243.0,714.216666666667,43593.0,NA,NA,0.0,0.0,0.0
244.0,717.216666666667,43773.0,NA,NA,0.0,0.0,0.0
245.0,720.216666666667,43953.0,NA,NA,0.0,0.0,0.0
246.0,723.216666666667,44133.0,NA,NA,0.0,0.0,0.0
247.0,726.216666666667,44313.0,NA,NA,0.0,0.0,0.0
248.0,729.216666666667,44493.0,NA,NA,0.0,0.0,0.0
249.0,732.216666666667,44673.0,NA,NA,0.0,0.0,0.0
250.0,735.216666666667,44853.0,NA,NA,0.0,0.0,0.0
251.0,738.216666666667,45033.0,NA,NA,0.0,0.0,0.0
252.0,741.216666666667,45213.0,NA,NA,0.0,0.0,0.0
253.0,744.216666666667,45393.0,NA,NA,0.0,0.0,0.0
254.0,747.216666666667,45573.0,NA,NA,0.0,0.0,0.0
255.0,750.216666666667,45753.0,NA,NA,0.0,0.0,0.0
256.0,753.216666666667,45933.0,NA,NA,0.0,0.0,0.0
257.0,756.216666666667,46113.0,NA,NA,0.0,0.0,0.0
258.0,759.216666666667,46293.0,NA,NA,0.0,0.0,0.0
259.0,762.216666666667,46473.0,NA,NA,0.0,0.0,0.0
260.0,765.216666666667,46653.0,NA,NA,0.0,0.0,0.0
261.0,768.216666666667,46833.0,NA,NA,0.0,0.0,0.0
262.0,771.216666666667,47013.0,NA,NA,0.0,0.0,0.0
263.0,774.216666666667,47193.0,NA,NA,0.0,0.0,0.0
264.0,777.216666666667,47373.0,NA,NA,0.0,0.0,0.0
265.0,780.216666666667,47553.0,NA,NA,0.0,0.0,0.0
266.0,783.216666666667,47733.0,NA,NA,0.0,0.0,0.0
267.0,786.216666666667,47913.0,NA,NA,0.0,0.0,0.0
268.0,789.216666666667,48093.0,NA,NA,0.0,0.0,0.0
269.0,792.216666666667,48273.0,NA,NA,0.0,0.0,0.0
270.0,795.216666666667,48453.0,NA,NA,0.0,0.0,0.0
271.0,798.216666666667,48633.0,NA,NA,0.0,0.0,0.0
272.0,801.216666666667,48813.0,NA,NA,0.0,0.0,0.0
273.0,804.216666666667,48993.0,NA,NA,0.0,0.0,0.0
274.0,807.216666666667,49173.0,NA,NA,0.0,0.0,0.0
275.0,810.216666666667,49353.0,NA,NA,0.0,0.0,0.0
276.0,813.216666666667,49533.0,NA,NA,0.0,0.0,0.0
277.0,816.216666666667,49713.0,NA,NA,0.0,0.0,0.0
278.0,819.216666666667,49893.0,NA,NA,0.0,0.0,0.0
279.0,822.216666666667,50073.0,NA,NA,0.0,0.0,0.0
280.0,825.216666666667,50253.0,NA,NA,0.0,0.0,0.0
281.0,828.216666666667,50433.0,NA,NA,0.0,0.0,0.0
282.0,831.216666666667,50613.0,NA,NA,0.0,0.0,0.0
283.0,834.216666666667,50793.0,NA,NA,0.0,0.0,0.0
284.0,837.216666666667,50973.0,NA,NA,0.0,0.0,0.0
285.0,840.216666666667,51153.0,NA,NA,0.0,0.0,0.0
286.0,843.216666666667,51333.0,NA,NA,0.0,0.0,0.0
287.0,846.216666666667,51513.0,NA,NA,0.0,0.0,0.0
288.0,849.216666666667,51693.0,NA,NA,0.0,0.0,0.0
289.0,852.216666666667,51873.0,NA,NA,0.0,0.0,0.0
290.0,855.216666666667,52053.0,NA,NA,0.0,0.0,0.0
291.0,858.216666666667,52233.0,NA,NA,0.0,0.0,0.0
292.0,861.216666666667,52413.0,NA,NA,0.0,0.0,0.0
293.0,864.216666666667,52593.0,NA,NA,0.0,0.0,0.0
294.0,867.216666666667,52773.0,NA,NA,0.0,0.0,0.0
295.0,870.216666666667,52953.0,NA,NA,0.0,0.0,0.0
296.0,873.216666666667,53133.0,NA,NA,0.0,0.0,0.0
297.0,876.216666666667,53313.0,NA,NA,0.0,0.0,0.0
298.0,879.216666666667,53493.0,NA,NA,0.0,0.0,0.0
299.0,882.216666666667,53673.0,NA,NA,0.0,0.0,0.0
300.0,885.216666666667,53853.0,NA,NA,0.0,0.0,0.0
301.0,888.216666666667,54033.0,NA,NA,0.0,0.0,0.0
302.0,891.216666666667,54213.0,NA,NA,0.0,0.0,0.0
303.0,894.216666666667,54393.0,NA,NA,0.0,0.0,0.0
304.0,897.216666666667,54573.0,NA,NA,0.0,0.0,0.0
305.0,900.216666666667,54753.0,NA,NA,0.0,0.0,0.0
306.0,903.216666666667,54933.0,NA,NA,0.0,0.0,0.0
307.0,906.216666666667,55113.0,NA,NA,0.0,0.0,0.0
