"Frame","Time (aligned)","Time [ s]","Intensity Ch3-T2","background","Intensity (bg-subst)","bleach-Corrected","Normalized"
1.0,-13.733333333333334,0.0,143.466,133.184,10.28200000000001,10.282102820514112,1.0046309579777093
2.0,-10.733333333333334,180.0,143.343,133.091,10.251999999999981,10.252205042050395,1.0017097428971244
3.0,-7.733333333333333,360.0,141.583,131.233,10.349999999999994,10.350310504657541,1.0112953098382782
4.0,-4.733333333333333,540.0,143.358,133.242,10.116000000000014,10.11640464809292,0.9884411263255167
5.0,-0.3333333333333333,804.0,143.513,133.341,10.171999999999997,10.172508612715209,0.9939228629613714
6.0,2.55,977.0,145.701,135.394,10.306999999999988,10.307618438552959,1.007124006359079
7.0,5.833333333333334,1174.0,145.08,134.929,10.15100000000001,10.151710594870542,0.9918907560124273
8.0,8.833333333333332,1354.0,144.868,134.857,10.010999999999996,10.01180091203605,0.9782206341365846
9.0,11.833333333333332,1534.0,146.313,136.637,9.675999999999988,9.676870879188963,0.9454957056245538
10.0,14.833333333333332,1714.0,143.194,134.831,8.363,8.363836341816393,0.8172033545203984
11.0,17.833333333333336,1894.0,143.698,136.773,6.925000000000011,6.925761791897798,0.6766937488543617
12.0,20.833333333333336,2074.0,139.987,134.562,5.424999999999983,5.425651039061545,0.5301227867659674
13.0,23.833333333333336,2254.0,138.867,134.746,4.120999999999981,4.12153576482394,0.40270190796899963
14.0,26.833333333333336,2434.0,139.567,136.779,2.788000000000011,2.788390347323686,0.27244458791626097
15.0,29.833333333333336,2614.0,139.063,136.745,2.3179999999999836,2.3183477260787875,0.22651824608572824
16.0,32.83333333333333,2794.0,138.843,136.716,2.126999999999981,2.127340347227033,0.20785553386174618
17.0,35.83333333333333,2974.0,136.57,134.766,1.804000000000002,1.8043067060692792,0.176292963243617
18.0,38.83333333333333,3154.0,136.369,134.668,1.7009999999999934,1.701306207557847,0.16622911820160174
19.0,41.83333333333333,3334.0,139.023,136.465,2.5579999999999927,2.558486066174817,0.24998138537436923
20.0,44.83333333333333,3514.0,138.132,136.401,1.7309999999999945,1.7313462346223025,0.16916423193215394
21.0,47.83333333333333,3694.0,138.044,136.263,1.781000000000006,1.781374049273805,0.1740522876378989
22.0,50.83333333333333,3874.0,137.604,136.106,1.4980000000000189,1.4983295962542775,0.1463969310487818
23.0,53.83333333333333,4054.0,135.927,134.381,1.5459999999999923,1.5463556208948275,0.1510893983373052
24.0,56.83333333333333,4234.0,137.743,136.38,1.3629999999999995,1.3633271592575402,0.1332062802668461
25.0,59.83333333333333,4414.0,137.695,136.198,1.4969999999999857,1.4973742967851342,0.1463035918323205
26.0,62.83333333333333,4594.0,135.56,134.047,1.5130000000000052,1.5133934311438375,0.1478687695569246
27.0,65.83333333333334,4774.0,135.499,133.886,1.6129999999999995,1.6134355687991413,0.15764356274322347
28.0,68.83333333333334,4954.0,135.459,134.004,1.4550000000000125,1.4554074570413362,0.14220314787148092
29.0,71.83333333333334,5134.0,137.276,135.798,1.4780000000000086,1.478428682155917,0.14445247720074406
30.0,74.83333333333334,5314.0,135.228,133.867,1.3610000000000184,1.3614083612511434,0.13301880072953917
31.0,77.83333333333334,5494.0,135.284,133.782,1.5019999999999811,1.5024656921785393,0.14680105558276219
32.0,80.83333333333334,5674.0,135.345,133.885,1.460000000000008,1.4604672747599823,0.142697526269617
33.0,83.83333333333334,5854.0,135.096,133.845,1.2510000000000048,1.2514128981244481,0.12227150035497938
34.0,86.83333333333334,6034.0,137.043,135.752,1.2909999999999968,1.2914390146282544,0.12618232253496373
35.0,89.83333333333334,6214.0,136.898,135.818,1.079999999999984,1.0803780661577023,0.10556024098656577
36.0,92.83333333333334,6394.0,134.873,133.534,1.3389999999999986,1.3394821267776116,0.13087645938861814
37.0,95.83333333333334,6574.0,134.887,133.433,1.4540000000000077,1.4545380795385836,0.14211820381201362
38.0,98.83333333333334,6754.0,135.046,133.311,1.7349999999999852,1.7356594252828539,0.16958565981912324
39.0,101.83333333333334,6934.0,134.707,133.347,1.3599999999999852,1.3605305034414321,0.1329330280867507
40.0,104.83333333333334,7114.0,136.909,135.252,1.6569999999999823,1.6576629325776586,0.16196487518458447
41.0,107.83333333333334,7294.0,134.693,133.232,1.4610000000000127,1.4615991328138467,0.14280811645343422
42.0,110.83333333333334,7474.0,136.711,135.358,1.3530000000000086,1.3535683793513171,0.1322527814955323
43.0,113.83333333333334,7654.0,134.313,133.048,1.2649999999999864,1.265544066966001,0.12365221108491975
44.0,116.83333333333334,7834.0,134.534,133.049,1.4849999999999852,1.4856535437690706,0.14515839502420694
45.0,119.83333333333334,8014.0,134.491,132.935,1.5560000000000116,1.556700357568646,0.1521001490461885
46.0,122.83333333333334,8194.0,134.647,132.914,1.733000000000004,1.7337973633795212,0.16940372378265153
47.0,125.83333333333334,8374.0,134.139,132.968,1.1710000000000207,1.1715504993572359,0.11446840408367691
48.0,128.83333333333331,8554.0,134.295,133.04,1.2549999999999955,1.2556025445991303,0.1226808571397657
49.0,131.83333333333331,8734.0,136.329,134.851,1.4780000000000086,1.4787243974628932,0.14448137058542637
50.0,134.83333333333331,8914.0,134.602,133.153,1.4490000000000123,1.4497246811552036,0.14164790224885715
51.0,137.83333333333331,9094.0,136.397,134.798,1.5989999999999895,1.5998156979852955,0.1563128092872332
52.0,140.83333333333331,9274.0,134.511,132.719,1.7920000000000016,1.7929320823204018,0.1751815856049231
53.0,143.83333333333331,9454.0,136.093,134.753,1.3400000000000034,1.340710388236257,0.13099646883682015
54.0,146.83333333333331,9634.0,136.371,134.852,1.5190000000000055,1.5198204815100755,0.14849673582794093
55.0,149.83333333333331,9814.0,136.134,134.672,1.461999999999989,1.4628043211680346,0.14292587150334443
56.0,152.83333333333331,9994.0,136.312,134.784,1.52800000000002,1.5288559196351499,0.1493795592170663
57.0,155.83333333333331,10174.0,136.181,134.627,1.554000000000002,1.554886032495274,0.15192287722072997
58.0,158.83333333333331,10354.0,136.109,134.546,1.5630000000000166,1.5639068029474508,0.15280426747905207
59.0,161.83333333333331,10534.0,134.354,132.572,1.7820000000000107,1.7830516902181173,0.1742162044998918
60.0,164.83333333333331,10714.0,135.709,134.515,1.1940000000000168,1.1947166149630073,0.1167318901934652
61.0,167.83333333333331,10894.0,136.188,134.594,1.593999999999994,1.5949726366240047,0.15583960945059752
62.0,170.83333333333331,11074.0,136.069,134.339,1.7299999999999898,1.7310729325747183,0.16913752847443964
63.0,173.83333333333331,11254.0,134.099,132.247,1.8519999999999754,1.8531671276065687,0.18106695674991297
64.0,176.83333333333331,11434.0,135.842,134.165,1.677000000000021,1.678073623522902,0.16395913767692175
65.0,179.83333333333331,11614.0,135.75,134.208,1.5420000000000016,1.5430026258180918,0.15076178805030097
66.0,182.83333333333331,11794.0,135.75,134.15,1.5999999999999943,1.6010563485566724,0.15643402923550598
67.0,185.83333333333331,11974.0,133.53,132.144,1.3859999999999957,1.3869289311571835,0.13551233294181095
68.0,188.83333333333331,12154.0,133.924,132.115,1.8089999999999975,1.8102305383356148,0.17687176170425428
69.0,191.83333333333331,12334.0,135.758,133.858,1.9000000000000057,1.9013114523990515,0.18577098276305135
70.0,194.83333333333331,12514.0,133.592,131.878,1.714000000000027,1.7152002200280279,0.16758665715075752
71.0,197.83333333333331,12694.0,135.368,133.901,1.4669999999999845,1.4680419398448594,0.14343762225712237
72.0,200.83333333333331,12874.0,135.064,133.624,1.4399999999999977,1.4410371733375935,0.1407990740029626
73.0,203.83333333333331,13054.0,132.986,131.395,1.5909999999999798,1.5921618540251028,0.1555649769883187
74.0,206.83333333333331,13234.0,135.023,133.414,1.6090000000000089,1.6101911006528966,0.15732655627102726
75.0,209.83333333333331,13414.0,133.197,131.361,1.8360000000000127,1.8373775165041306,0.1795242049991437
76.0,212.83333333333331,13594.0,132.969,131.372,1.59699999999998,1.598214181330443,0.15615633028296066
77.0,215.83333333333331,13774.0,135.02,133.384,1.636000000000024,1.6372602051167295,0.159971390778502
78.0,218.83333333333331,13954.0,133.191,131.437,1.7539999999999907,1.755368653705545,0.17151138468075225
79.0,221.83333333333331,14134.0,132.959,131.09,1.8689999999999998,1.8704770933750619,0.1827582574299516
80.0,224.83333333333331,14314.0,132.838,131.172,1.6659999999999968,1.6673333332621907,0.16290973870844913
81.0,227.83333333333331,14494.0,132.815,131.087,1.7280000000000086,1.7294002470234946,0.16897409578785255
82.0,230.83333333333331,14674.0,132.919,131.235,1.6839999999999975,1.6853814463155798,0.16467316136848528
83.0,233.83333333333331,14854.0,134.938,133.109,1.8289999999999793,1.8305187001733652,0.17885405227442844
84.0,236.83333333333331,15034.0,133.047,131.281,1.7659999999999911,1.7674840632192803,0.17269514209677345
85.0,239.83333333333331,15214.0,133.0,131.308,1.6920000000000073,1.6934388114082275,0.16546042041005535
86.0,242.83333333333331,15394.0,135.113,133.198,1.914999999999992,1.9166476083700437,0.1872694288818836
87.0,245.83333333333331,15574.0,134.832,133.19,1.641999999999996,1.6434291615951453,0.16057413953182792
88.0,248.83333333333331,15754.0,134.599,133.285,1.313999999999993,1.3151568289300681,0.1284997133371282
89.0,251.83333333333331,15934.0,132.846,131.235,1.61099999999999,1.6124344282258665,0.1575457445409786
90.0,254.83333333333331,16114.0,132.824,131.216,1.608000000000004,1.60944785143542,0.15725393579772487
91.0,257.83333333333337,16294.0,134.935,133.15,1.7849999999999966,1.786625089303485,0.17456534974858617
92.0,260.83333333333337,16474.0,132.928,131.194,1.7340000000000089,1.7355960140539015,0.1695794641133614
93.0,263.83333333333337,16654.0,134.791,133.186,1.6049999999999898,1.6064933442974552,0.15696526047632622
94.0,266.83333333333337,16834.0,133.035,131.042,1.992999999999995,1.994874300783352,0.19491270558417592
95.0,269.83333333333337,17014.0,132.818,131.119,1.6990000000000123,1.7006148169166,0.1661615646617882
96.0,272.83333333333337,17194.0,133.183,131.208,1.9749999999999943,1.97689691037129,0.19315619300431958
97.0,275.83333333333337,17374.0,133.28,131.122,2.157999999999987,2.1600942755594246,0.21105581409357316
98.0,278.83333333333337,17554.0,134.748,133.137,1.61099999999999,1.6125795538549619,0.1575599242960667
99.0,281.83333333333337,17734.0,134.543,133.173,1.3700000000000045,1.371356971590111,0.13399084721748553
100.0,284.83333333333337,17914.0,134.797,133.164,1.6330000000000098,1.6346338167722445,0.15971477488148167
101.0,287.83333333333337,18094.0,132.948,131.062,1.8859999999999957,1.8879058222782354,0.18446116207114965
102.0,290.83333333333337,18274.0,134.596,132.945,1.6510000000000105,1.6526848791422941,0.1614784857096945
103.0,293.83333333333337,18454.0,134.6,133.161,1.438999999999993,1.4404829335796827,0.14074492103166295
104.0,296.83333333333337,18634.0,134.975,132.945,2.030000000000001,2.032112298204679,0.19855110968065318
105.0,299.83333333333337,18814.0,134.768,132.997,1.7709999999999866,1.7728605266055186,0.1732204589173242
106.0,302.83333333333337,18994.0,134.613,132.761,1.8520000000000039,1.8539641608213284,0.18114483228335798
107.0,305.83333333333337,19174.0,132.862,130.951,1.9110000000000014,1.913045864342232,0.18691751414068575
108.0,308.83333333333337,19354.0,134.893,133.045,1.8480000000000132,1.8499969181417093,0.18075720585291577
109.0,311.83333333333337,19534.0,134.928,133.022,1.906000000000006,1.9080786726708057,0.18643218593356378
110.0,314.83333333333337,19714.0,134.232,132.76,1.4720000000000084,1.473620090886637,0.14398264532513377
111.0,317.83333333333337,19894.0,132.734,130.761,1.9730000000000132,1.9751912459165109,0.19298953805590044
112.0,320.83333333333337,20074.0,134.71,132.797,1.913000000000011,1.9151437602816743,0.18712249275684728
113.0,323.83333333333337,20254.0,132.47,130.758,1.711999999999989,1.713935653438212,0.16746310044579843
114.0,326.83333333333337,20434.0,132.407,130.577,1.8300000000000125,1.8320873895860124,0.1790073238352081
115.0,329.83333333333337,20614.0,134.679,132.704,1.9749999999999943,1.9772725564695097,0.1931928961676805
116.0,332.83333333333337,20794.0,132.379,130.613,1.7659999999999911,1.768049748624348,0.1727504133851789
117.0,335.83333333333337,20974.0,134.648,132.527,2.1210000000000093,2.123483022284795,0.2074786471373477
118.0,338.83333333333337,21154.0,132.361,130.552,1.8089999999999975,1.8111358799213177,0.17696021969776193
119.0,341.83333333333337,21334.0,132.211,130.5,1.7110000000000127,1.713037301954257,0.16737532543248834
120.0,344.83333333333337,21514.0,132.31,130.285,2.0250000000000057,2.0274314585833806,0.19809376000471893
121.0,347.83333333333337,21694.0,131.97,130.284,1.686000000000007,1.6880412947342662,0.16493304654096277
122.0,350.83333333333337,21874.0,134.016,132.208,1.8079999999999927,1.810207106060935,0.1768694722126036
123.0,353.83333333333337,22054.0,134.155,132.231,1.9240000000000066,1.9263679760067083,0.18821917451477443
124.0,356.83333333333337,22234.0,134.423,132.32,2.1030000000000086,2.1056093374548874,0.20573226729397204
125.0,359.83333333333337,22414.0,131.656,129.879,1.7770000000000152,1.7792226388598964,0.17384208029579606
126.0,362.83333333333337,22594.0,133.65,131.721,1.929000000000002,1.9314320718835256,0.18871397091788641
127.0,365.83333333333337,22774.0,131.12,129.283,1.8370000000000175,1.8393344720760132,0.17971541278856373
128.0,368.83333333333337,22954.0,133.111,131.212,1.899000000000001,1.901432276324762,0.18578278807742643
129.0,371.83333333333337,23134.0,130.942,129.201,1.7410000000000139,1.7432473392221624,0.17032705030927578
130.0,374.83333333333337,23314.0,132.728,130.839,1.88900000000001,1.8914572968969239,0.18480816515122855
131.0,377.83333333333337,23494.0,132.624,130.624,2.0,2.002621716849609,0.19566968051044945
132.0,380.83333333333337,23674.0,130.416,128.412,2.0039999999999907,2.0066470266532335,0.19606298049147125
133.0,383.83333333333337,23854.0,130.277,128.479,1.7979999999999734,1.8003929309463147,0.17591056095492869
134.0,386.83333333333337,24034.0,130.258,128.35,1.9080000000000155,1.910558433767813,0.18667447535722834
135.0,389.83333333333337,24214.0,129.974,128.035,1.938999999999993,1.9416194177091226,0.1897093434768537
136.0,392.83333333333337,24394.0,129.856,127.9,1.9559999999999889,1.9586619697291066,0.19137451602580563
137.0,395.83333333333337,24574.0,129.965,127.896,2.0690000000000026,2.0718364725400447,0.20243243006949332
138.0,398.83333333333337,24754.0,129.871,127.751,2.1200000000000045,2.1229276195929105,0.20742438053953677
139.0,401.83333333333337,24934.0,129.746,127.732,2.01400000000001,2.016801406526496,0.1970551320540283
140.0,404.83333333333337,25114.0,129.737,127.674,2.062999999999988,2.065890222683797,0.20185144125876694
141.0,407.83333333333337,25294.0,129.53,127.654,1.8760000000000048,1.8786470257145877,0.18355651505255535
142.0,410.83333333333337,25474.0,131.817,129.765,2.052000000000021,2.0549159098060135,0.20077917669849057
143.0,413.83333333333337,25654.0,129.793,127.93,1.8629999999999995,1.8656659957326405,0.182288180664741
144.0,416.83333333333337,25834.0,130.091,127.891,2.200000000000003,2.203170282055258,0.21526463114463618
145.0,419.83333333333337,26014.0,132.441,130.298,2.1430000000000007,2.146109603918013,0.20968941713048456
146.0,422.83333333333337,26194.0,132.259,130.383,1.8759999999999764,1.878740960414193,0.18356569310775467
147.0,425.83333333333337,26374.0,130.645,128.524,2.1210000000000093,2.124120162757773,0.20754090006896175
148.0,428.83333333333337,26554.0,130.523,128.757,1.7659999999999911,1.7686156150777117,0.17280570236322684
149.0,431.83333333333337,26734.0,132.922,130.707,2.2150000000000034,2.218302809982393,0.21674318142695112
150.0,434.83333333333337,26914.0,130.702,128.88,1.8220000000000027,1.8247350507752622,0.17828895062772723
151.0,437.83333333333337,27094.0,130.761,128.855,1.906000000000006,1.9088802340294297,0.18651050389727697
152.0,440.83333333333337,27274.0,130.955,128.743,2.2120000000000175,2.215364796597596,0.2164561176567434
153.0,443.83333333333337,27454.0,130.994,129.014,1.9799999999999898,1.9830317186733624,0.19375560524995714
154.0,446.83333333333337,27634.0,131.113,129.112,2.0010000000000048,2.004083914004304,0.1958125470576836
155.0,449.83333333333337,27814.0,132.874,131.218,1.656000000000006,1.6585687902981938,0.16205338360795454
156.0,452.83333333333337,27994.0,132.96,130.87,2.0900000000000034,2.0932629444349375,0.20452594122782392
157.0,455.83333333333337,28174.0,132.65,130.952,1.6980000000000075,1.7006679537957172,0.16616675649411117
158.0,458.83333333333337,28354.0,130.666,129.014,1.6519999999999868,1.6546122231128166,0.1616668002454717
159.0,461.83333333333337,28534.0,131.086,129.194,1.8920000000000243,1.8950106728506673,0.18515535400459637
160.0,464.83333333333337,28714.0,133.085,131.047,2.038000000000011,2.041263410031842,0.19944523517248758
161.0,467.83333333333337,28894.0,133.037,131.073,1.9639999999999986,1.9671645868088026,0.19220527919664754
162.0,470.83333333333337,29074.0,131.445,129.091,2.353999999999985,2.357816570587477,0.23037461902433842
163.0,473.83333333333337,29254.0,133.204,131.118,2.0860000000000127,2.089402952652983,0.20414879393515586
164.0,476.83333333333337,29434.0,133.416,131.338,2.078000000000003,2.0814107160226865,0.20336789838466013
165.0,479.83333333333337,29614.0,133.144,131.233,1.9110000000000014,1.9141557527800837,0.1870259577444924
166.0,482.83333333333337,29794.0,133.22,131.319,1.9010000000000105,1.9041582806477018,0.18604913712899812
167.0,485.83333333333337,29974.0,131.352,129.138,2.2139999999999986,2.21770046903162,0.2166843286439195
168.0,488.83333333333337,30154.0,131.263,129.412,1.850999999999999,1.854112293594607,0.18115930585676263
169.0,491.83333333333337,30334.0,131.225,129.459,1.7659999999999911,1.7689870633575824,0.1728419953713556
170.0,494.83333333333337,30514.0,133.066,131.275,1.7909999999999968,1.7940472894621509,0.17529054888205778
171.0,497.83333333333337,30694.0,131.18,129.251,1.929000000000002,1.9323014119027073,0.18879891131495544
172.0,500.83333333333337,30874.0,133.207,131.504,1.703000000000003,1.7059316805224953,0.16668105818087367
173.0,503.83333333333337,31054.0,133.161,131.294,1.8669999999999902,1.8702327054839702,0.18273437908080148
174.0,506.83333333333337,31234.0,132.874,131.032,1.8419999999999845,1.8452078700375718,0.18028928347666195
175.0,509.83333333333337,31414.0,130.987,129.251,1.73599999999999,1.7390406598013144,0.16991602929049743
176.0,512.8333333333333,31594.0,133.338,131.105,2.233000000000004,2.2369335405002664,0.21856352975206733
177.0,515.8333333333333,31774.0,130.931,129.276,1.6550000000000011,1.6579319440049884,0.16199115941969308
178.0,518.8333333333333,31954.0,133.037,131.233,1.804000000000002,1.8072139795932423,0.17657702352160362
179.0,521.8333333333333,32134.0,131.245,129.42,1.825000000000017,1.828269675486547,0.17863430735793862
180.0,524.8333333333333,32314.0,130.965,129.143,1.8220000000000027,1.8252825534117838,0.1783424453367207
181.0,527.8333333333333,32494.0,133.021,131.264,1.7569999999999766,1.7601830497910385,0.1719817837261502
182.0,530.8333333333333,32674.0,130.937,129.273,1.6640000000000157,1.6670312375894996,0.16288022191890184
183.0,533.8333333333333,32854.0,130.747,129.052,1.6950000000000216,1.6981046899248615,0.165916308284919
184.0,536.8333333333333,33034.0,132.817,131.18,1.6370000000000005,1.6400148528139988,0.16024053848138992
185.0,539.8333333333333,33214.0,130.822,128.943,1.8789999999999907,1.882479367422512,0.18393096074606158
186.0,542.8333333333333,33394.0,132.872,131.154,1.7180000000000177,1.7211984536397886,0.168172725125835
187.0,545.8333333333333,33574.0,132.696,131.16,1.5360000000000014,1.5388750072940203,0.15035849181563085
188.0,548.8333333333333,33754.0,132.643,131.181,1.461999999999989,1.4647511452662354,0.14311608937929168
189.0,551.8333333333333,33934.0,133.014,131.143,1.8710000000000093,1.8745395338058253,0.1831551853242674
190.0,554.8333333333333,34114.0,132.65,131.076,1.5740000000000123,1.5769934428702117,0.15408292067206256
