"Frame","Time (aligned)","Time [ s]","Intensity Ch3-T2","background","Intensity (bg-subst)","bleach-Corrected","Normalized"
1.0,-13.733333333333334,0.0,179.548,166.911,12.637,12.637126370631853,1.0056460349108662
2.0,-10.733333333333334,180.0,179.557,167.024,12.532999999999987,12.533250662506603,0.9973797415356191
3.0,-7.733333333333333,360.0,179.37,166.976,12.394000000000005,12.39437182557736,0.9863279448221276
4.0,-4.733333333333333,540.0,181.299,168.733,12.566000000000003,12.566502650052936,1.0000258913364621
5.0,-0.3333333333333333,804.0,181.033,168.334,12.698999999999984,12.699634965873999,1.0106203873949247
6.0,2.55,977.0,171.072,158.204,12.867999999999995,12.868772103162858,1.0240801001873838
7.0,5.833333333333334,1174.0,168.294,155.456,12.838000000000022,12.838898691453856,1.0217028130452506
8.0,8.833333333333332,1354.0,167.909,154.976,12.932999999999993,12.934034681386695,1.02927361104531
9.0,11.833333333333332,1534.0,166.219,153.962,12.257000000000005,12.258103179642344,0.9754838637036787
10.0,14.833333333333332,1714.0,168.538,157.616,10.921999999999997,10.923092254611818,0.8692454354452052
11.0,17.833333333333336,1894.0,169.52,159.892,9.628000000000014,9.62905913825155,0.7662679677564027
12.0,20.833333333333336,2074.0,166.931,159.867,7.064000000000021,7.064847730862856,0.5622113682666313
13.0,23.833333333333336,2254.0,167.46,161.879,5.581000000000017,5.581725577161511,0.4441864416009935
14.0,26.833333333333336,2434.0,165.016,160.473,4.542999999999978,4.543636064523455,0.3615766320881986
15.0,29.833333333333336,2614.0,164.121,160.397,3.724000000000018,3.724558641897113,0.2963955190573563
16.0,32.83333333333333,2794.0,163.673,160.424,3.2489999999999952,3.2495198815894133,0.25859255406979276
17.0,35.83333333333333,2974.0,162.927,160.435,2.4919999999999902,2.492423676011431,0.19834382545416748
18.0,38.83333333333333,3154.0,159.953,158.308,1.6450000000000102,1.6452961266506092,0.1309305199214893
19.0,41.83333333333333,3334.0,162.003,160.027,1.975999999999999,1.976375475669058,0.15727738271420713
20.0,44.83333333333333,3514.0,161.742,160.015,1.7270000000000039,1.7273454345423067,0.13745989683270088
21.0,47.83333333333333,3694.0,161.946,159.564,2.382000000000005,2.382500272526782,0.18959626436977853
22.0,50.83333333333333,3874.0,161.693,159.85,1.8430000000000177,1.8434055046038886,0.14669580583968436
23.0,53.83333333333333,4054.0,159.941,157.943,1.9979999999999905,1.9984595928511422,0.1590348079568859
24.0,56.83333333333333,4234.0,159.749,157.769,1.9799999999999898,1.980475257028552,0.15760363796775578
25.0,59.83333333333333,4414.0,159.476,157.737,1.7390000000000043,1.7394348043482832,0.13842195311459463
26.0,62.83333333333333,4594.0,159.147,157.612,1.5349999999999966,1.5353991518874934,0.12218506200029096
27.0,65.83333333333334,4774.0,159.467,157.536,1.9310000000000116,1.9315214403912966,0.15370795708658502
28.0,68.83333333333334,4954.0,159.076,157.612,1.4639999999999986,1.4644099773941552,0.11653583608001145
29.0,71.83333333333334,5134.0,161.307,159.39,1.9170000000000016,1.9175560106176444,0.1525966063992691
30.0,74.83333333333334,5314.0,159.477,157.345,2.132000000000005,2.1326396959495995,0.16971268556033256
31.0,77.83333333333334,5494.0,161.02,159.146,1.8740000000000236,1.874581030055029,0.14917671349516698
32.0,80.83333333333334,5674.0,158.931,157.216,1.7150000000000034,1.7155488878173704,0.13652114302968896
33.0,83.83333333333334,5854.0,160.812,159.156,1.656000000000006,1.6565465701791253,0.1318258155443719
34.0,86.83333333333334,6034.0,158.701,157.094,1.6069999999999993,1.6075464728951272,0.12792645170969374
35.0,89.83333333333334,6214.0,158.267,156.758,1.5089999999999861,1.50952824243702,0.12012628876772528
36.0,92.83333333333334,6394.0,158.353,157.044,1.3089999999999975,1.3094713248333771,0.10420602018418543
37.0,95.83333333333334,6574.0,158.528,156.747,1.7809999999999775,1.7816590919244644,0.14178210684990933
38.0,98.83333333333334,6754.0,160.189,158.688,1.5010000000000048,1.501570488385933,0.11949302107904652
39.0,101.83333333333334,6934.0,160.332,158.652,1.6800000000000068,1.6806553277806178,0.13374435903103926
40.0,104.83333333333334,7114.0,158.234,156.545,1.6890000000000214,1.6896757351380391,0.13446219128389644
41.0,107.83333333333334,7294.0,160.041,158.338,1.703000000000003,1.703698373156717,0.135578094528739
42.0,110.83333333333334,7474.0,159.927,158.499,1.4279999999999973,1.428599885967232,0.1136861157086957
43.0,113.83333333333334,7654.0,159.935,158.253,1.6820000000000164,1.6827234155232074,0.13390893475634152
44.0,116.83333333333334,7834.0,158.047,156.266,1.781000000000006,1.781783812426094,0.14179203194476536
45.0,119.83333333333334,8014.0,160.178,158.311,1.8669999999999902,1.8678403390620983,0.14864029809733148
46.0,122.83333333333334,8194.0,159.953,158.314,1.63900000000001,1.639754113432802,0.13048949373765184
47.0,125.83333333333334,8374.0,160.039,158.177,1.8619999999999948,1.8628753456901181,0.14824519040026088
48.0,128.83333333333331,8554.0,159.525,158.066,1.4590000000000032,1.4597004881036986,0.11616106106451352
49.0,131.83333333333331,8734.0,159.73,157.962,1.7680000000000007,1.7688665322830723,0.1407640916380314
50.0,134.83333333333331,8914.0,159.565,157.918,1.6469999999999914,1.6478237059093082,0.13113166138236293
51.0,137.83333333333331,9094.0,157.81,155.959,1.850999999999999,1.8519442507634771,0.14737530812261287
52.0,140.83333333333331,9274.0,159.551,158.108,1.4429999999999836,1.4437505551274041,0.11489178620057128
53.0,143.83333333333331,9454.0,159.319,157.755,1.563999999999993,1.5648291397026053,0.12452706204727336
54.0,146.83333333333331,9634.0,157.399,155.906,1.492999999999995,1.4938064377185827,0.1188751680530126
55.0,149.83333333333331,9814.0,159.524,157.476,2.048000000000002,2.049126709816799,0.16306683104366068
56.0,152.83333333333331,9994.0,159.21,157.45,1.7600000000000193,1.7609858760195407,0.14013695929073341
57.0,155.83333333333331,10174.0,159.194,157.505,1.688999999999993,1.6899630044301823,0.13448505179950124
58.0,158.83333333333331,10354.0,158.952,157.263,1.688999999999993,1.689979904144725,0.1344863966567435
59.0,161.83333333333331,10534.0,158.936,157.3,1.6359999999999957,1.6369655248018038,0.13026758149134576
60.0,164.83333333333331,10714.0,159.16,157.425,1.7349999999999852,1.7360413123624545,0.13815190344824158
61.0,167.83333333333331,10894.0,157.136,155.552,1.5840000000000032,1.5849665347631354,0.12612956968248373
62.0,170.83333333333331,11074.0,156.887,155.243,1.6440000000000055,1.6450195960421174,0.13090851397632383
63.0,173.83333333333331,11254.0,158.686,157.3,1.3859999999999957,1.3868734551094657,0.11036558076171495
64.0,176.83333333333331,11434.0,156.693,154.919,1.774000000000001,1.7751357233927205,0.14126298569009754
65.0,179.83333333333331,11614.0,158.979,156.842,2.1370000000000005,2.138389501539079,0.17017024759009955
66.0,182.83333333333331,11794.0,156.549,154.967,1.5819999999999936,1.5830444646354092,0.12597661384853237
67.0,185.83333333333331,11974.0,156.199,154.842,1.3569999999999993,1.3579094946466832,0.1080606665636261
68.0,188.83333333333331,12154.0,158.244,156.484,1.759999999999991,1.7611972070042399,0.14015377673487248
69.0,191.83333333333331,12334.0,157.748,156.183,1.5649999999999977,1.5660802226339485,0.12462662159525524
70.0,194.83333333333331,12514.0,155.862,154.286,1.5759999999999934,1.577103586210104,0.12550384649169247
71.0,197.83333333333331,12694.0,155.649,153.967,1.681999999999988,1.6831946440484402,0.13394643450779123
72.0,200.83333333333331,12874.0,155.535,153.704,1.8309999999999889,1.8323187947091122,0.14581353992582916
73.0,203.83333333333331,13054.0,155.556,153.977,1.5790000000000077,1.5801530908269528,0.12574652209185921
74.0,206.83333333333331,13234.0,157.119,155.522,1.5970000000000084,1.5981822173664855,0.12718125646782644
75.0,209.83333333333331,13414.0,157.275,155.31,1.9650000000000034,1.9664743027944434,0.1564894602902087
76.0,212.83333333333331,13594.0,155.164,153.515,1.649000000000001,1.6502537163518691,0.13132503844410007
77.0,215.83333333333331,13774.0,157.233,155.614,1.6189999999999998,1.6202471100757614,0.12893715185203217
78.0,218.83333333333331,13954.0,155.095,153.567,1.5279999999999916,1.5291923049384677,0.12169112921521631
79.0,221.83333333333331,14134.0,155.181,153.489,1.6920000000000073,1.6933372081276719,0.1347535665290245
80.0,224.83333333333331,14314.0,154.857,153.164,1.693000000000012,1.6943549419045103,0.13483455645563086
81.0,227.83333333333331,14494.0,154.902,153.019,1.8829999999999814,1.884525847884949,0.1499681091277858
82.0,230.83333333333331,14674.0,156.695,155.304,1.3909999999999911,1.3921410877820428,0.11078477209961714
83.0,233.83333333333331,14854.0,154.637,153.154,1.483000000000004,1.48423140096071,0.11811319911582938
84.0,236.83333333333331,15034.0,156.878,155.021,1.8569999999999993,1.8585605353330799,0.147901823419534
85.0,239.83333333333331,15214.0,156.484,154.716,1.7680000000000007,1.7695034388710014,0.14081477583362892
86.0,242.83333333333331,15394.0,156.878,154.892,1.98599999999999,1.9877086946333697,0.15817926549831252
87.0,245.83333333333331,15574.0,154.635,152.944,1.6910000000000025,1.6924718101445808,0.13468469928620436
88.0,248.83333333333331,15754.0,156.839,155.098,1.7409999999999854,1.7425327543129694,0.13866848393235862
89.0,251.83333333333331,15934.0,154.919,152.925,1.9939999999999998,1.9957754499580367,0.15882120736618052
90.0,254.83333333333331,16114.0,156.813,154.901,1.9119999999999777,1.913721574592338,0.15229146698134494
91.0,257.83333333333337,16294.0,156.357,154.604,1.752999999999986,1.7545959560498543,0.13962845779344313
92.0,260.83333333333337,16474.0,156.399,154.817,1.5819999999999936,1.583456109707755,0.1260093720265116
93.0,263.83333333333337,16654.0,156.373,154.767,1.6059999999999945,1.607494274730044,0.1279222978477946
94.0,266.83333333333337,16834.0,156.375,154.544,1.8309999999999889,1.832721949189315,0.1458456224335593
95.0,269.83333333333337,17014.0,156.091,154.444,1.6470000000000198,1.648565393444175,0.13119068390905975
96.0,272.83333333333337,17194.0,154.339,152.651,1.6879999999999882,1.6896212580793537,0.13445785607061664
97.0,275.83333333333337,17374.0,156.25,154.73,1.5200000000000102,1.5214751153152768,0.12107700532995923
98.0,278.83333333333337,17554.0,156.5,154.813,1.6870000000000118,1.6886540703621085,0.13438088853350927
99.0,281.83333333333337,17734.0,156.074,154.415,1.6590000000000202,1.6606432232613244,0.13215182185369337
100.0,284.83333333333337,17914.0,156.241,154.235,2.0060000000000002,2.0080070033344173,0.15979457843116757
101.0,287.83333333333337,18094.0,154.03,152.139,1.8909999999999911,1.8929108748293397,0.15063537863605342
102.0,290.83333333333337,18274.0,155.642,153.92,1.7220000000000084,1.7237573360890528,0.13717436063748087
103.0,293.83333333333337,18454.0,154.066,152.143,1.9230000000000018,1.924981710405661,0.15318753390361156
104.0,296.83333333333337,18634.0,155.986,153.913,2.072999999999979,2.0751570414671208,0.16513829088696777
105.0,299.83333333333337,18814.0,155.601,153.932,1.6690000000000111,1.6707533703583584,0.13295637417376244
106.0,302.83333333333337,18994.0,155.606,153.884,1.7220000000000084,1.7238262877615207,0.13717984772164732
107.0,305.83333333333337,19174.0,155.604,153.911,1.693000000000012,1.6948124795036208,0.13487096670103582
108.0,308.83333333333337,19354.0,153.623,152.024,1.5989999999999895,1.6007278528725934,0.12738383482131946
109.0,311.83333333333337,19534.0,155.785,154.036,1.7489999999999952,1.750907449371049,0.13933493124258872
110.0,314.83333333333337,19714.0,153.504,151.77,1.7339999999999804,1.7359084494547452,0.13814133039132928
111.0,317.83333333333337,19894.0,155.584,153.576,2.0080000000000098,2.0102301174862376,0.15997149095592697
112.0,320.83333333333337,20074.0,155.47,153.607,1.8629999999999995,1.865087728909952,0.14842124897144837
113.0,323.83333333333337,20254.0,153.413,151.616,1.796999999999997,1.7990317577269168,0.1431646009365926
114.0,326.83333333333337,20434.0,155.296,153.599,1.6970000000000027,1.6989356831297522,0.13519908586801552
115.0,329.83333333333337,20614.0,153.262,151.402,1.8600000000000136,1.8621402303966206,0.14818669088396055
116.0,332.83333333333337,20794.0,153.292,151.855,1.4370000000000118,1.438667887187555,0.11448731411486383
117.0,335.83333333333337,20974.0,155.481,153.586,1.8949999999999818,1.8972184475387226,0.1509781696542194
118.0,338.83333333333337,21154.0,155.447,153.269,2.1779999999999973,2.180571556920194,0.17352704054241122
119.0,341.83333333333337,21334.0,154.88,153.245,1.634999999999991,1.6369468081210834,0.1302660920423048
120.0,344.83333333333337,21514.0,152.925,151.26,1.6650000000000205,1.6669991992796844,0.1326576221356077
121.0,347.83333333333337,21694.0,155.15,153.192,1.9579999999999984,1.9603706139321928,0.15600373669113818
122.0,350.83333333333337,21874.0,152.806,150.885,1.9210000000000207,1.923345050189772,0.15305729061820528
123.0,353.83333333333337,22054.0,152.726,150.865,1.86099999999999,1.8632904383307964,0.1482782229312316
124.0,356.83333333333337,22234.0,152.366,150.42,1.9460000000000264,1.9484145367033998,0.1550522876586931
125.0,359.83333333333337,22414.0,152.613,150.291,2.3220000000000027,2.3249043148185984,0.18501285317348512
126.0,362.83333333333337,22594.0,152.014,150.235,1.7789999999999964,1.7812429527634948,0.14174899103821872
127.0,365.83333333333337,22774.0,151.775,149.699,2.0759999999999934,2.078638194899159,0.16541531653687985
128.0,368.83333333333337,22954.0,151.349,149.684,1.664999999999992,1.667132564550138,0.13266823516989198
129.0,371.83333333333337,23134.0,153.4,151.31,2.0900000000000034,2.092697839732508,0.1665341647357687
130.0,374.83333333333337,23314.0,153.391,151.004,2.3870000000000005,2.3901051178893247,0.1902014480452955
131.0,377.83333333333337,23494.0,152.896,150.738,2.157999999999987,2.1608288324807154,0.1719559402804846
132.0,380.83333333333337,23674.0,150.893,148.82,2.0730000000000075,2.0757381667925086,0.1651845360824436
133.0,383.83333333333337,23854.0,150.359,148.385,1.974000000000018,1.976627166678593,0.15729741195648408
134.0,386.83333333333337,24034.0,150.251,148.267,1.9840000000000089,1.9866603420310938,0.15809583896551171
135.0,389.83333333333337,24214.0,150.14,148.212,1.9279999999999973,1.9306045576808646,0.15363499275631076
136.0,392.83333333333337,24394.0,151.726,149.865,1.86099999999999,1.863532681833266,0.14829750035321795
137.0,395.83333333333337,24574.0,151.451,149.712,1.7390000000000043,1.7413840627100736,0.1385770725527532
138.0,398.83333333333337,24754.0,151.778,149.652,2.1260000000000048,2.1289359053087398,0.1694179427317116
139.0,401.83333333333337,24934.0,151.628,149.265,2.3629999999999995,2.3662868538342035,0.18830602165617924
140.0,404.83333333333337,25114.0,151.29,149.399,1.8909999999999911,1.8936492540451113,0.15069413789103142
141.0,407.83333333333337,25294.0,149.847,147.412,2.4350000000000023,2.438435771649794,0.19404753843747663
142.0,410.83333333333337,25474.0,151.028,149.446,1.5819999999999936,1.5842480357276154,0.1260723924663219
143.0,413.83333333333337,25654.0,149.965,147.73,2.2350000000000136,2.2381983362654205,0.17811290448438213
144.0,416.83333333333337,25834.0,149.75,147.572,2.1779999999999973,2.1811385792346996,0.17357216343867454
145.0,419.83333333333337,26014.0,151.884,149.879,2.0049999999999955,2.007909358775364,0.15978680800450862
146.0,422.83333333333337,26194.0,149.857,147.91,1.9470000000000027,1.9498446961228597,0.15516609788004318
147.0,425.83333333333337,26374.0,150.06,148.123,1.9370000000000118,1.9398494838575262,0.1543706919239799
148.0,428.83333333333337,26554.0,150.277,148.084,2.1929999999999836,2.196248042958897,0.17477455485569643
149.0,431.83333333333337,26734.0,152.416,149.953,2.462999999999994,2.466672605411563,0.1962945888410361
150.0,434.83333333333337,26914.0,150.167,148.034,2.1330000000000098,2.1362019008252724,0.16999616117841973
151.0,437.83333333333337,27094.0,152.181,150.272,1.9090000000000202,1.9118847674513162,0.15214529626467338
152.0,440.83333333333337,27274.0,150.476,148.152,2.3240000000000123,2.3275351660455694,0.18522221288290389
153.0,443.83333333333337,27454.0,152.39,150.356,2.033999999999992,2.037114401909911,0.1621109072471903
154.0,446.83333333333337,27634.0,150.323,148.242,2.0810000000000173,2.0842072089170323,0.16585849140917144
155.0,449.83333333333337,27814.0,152.809,150.072,2.7369999999999948,2.741245639520611,0.2181447527902476
156.0,452.83333333333337,27994.0,152.48,150.413,2.066999999999979,2.0702270364339546,0.1647459675162673
157.0,455.83333333333337,28174.0,152.376,150.19,2.186000000000007,2.1894347155461915,0.17423235914630952
158.0,458.83333333333337,28354.0,150.575,148.326,2.2489999999999952,2.252556228680839,0.17925548683686995
159.0,461.83333333333337,28534.0,152.393,150.127,2.265999999999991,2.2696058058559934,0.18061226995197333
160.0,464.83333333333337,28714.0,152.516,150.296,2.219999999999999,2.223554843116125,0.1769475943979802
161.0,467.83333333333337,28894.0,150.611,148.24,2.370999999999981,2.3748203845843365,0.18898510890362535
162.0,470.83333333333337,29074.0,150.376,148.281,2.094999999999999,2.098396650544092,0.16698766866761952
163.0,473.83333333333337,29254.0,150.375,148.19,2.1850000000000023,2.1885644542410088,0.17416310488666017
164.0,476.83333333333337,29434.0,150.485,148.104,2.3810000000000002,2.384908043719928,0.1897878716610522
165.0,479.83333333333337,29614.0,150.294,148.173,2.1210000000000093,2.124502538799881,0.1690651412070468
166.0,482.83333333333337,29794.0,150.504,148.31,2.1939999999999884,2.1976450645665504,0.17488572801320212
167.0,485.83333333333337,29974.0,152.681,150.098,2.5829999999999984,2.5873172138702234,0.20589532943438663
168.0,488.83333333333337,30154.0,150.605,148.116,2.488999999999976,2.4931850344445894,0.19840441336529505
169.0,491.83333333333337,30334.0,152.229,149.949,2.280000000000001,2.2838564577889637,0.1817463182467337
170.0,494.83333333333337,30514.0,150.223,148.034,2.1890000000000214,2.1927244648982094,0.17449415310916772
171.0,497.83333333333337,30694.0,152.243,150.2,2.0430000000000064,2.0464965186714563,0.162857523862677
172.0,500.83333333333337,30874.0,150.162,148.042,2.1200000000000045,2.123649537702696,0.16899726049223873
173.0,503.83333333333337,31054.0,152.004,149.986,2.0180000000000007,2.021494161578293,0.16086786889391783
174.0,506.83333333333337,31234.0,150.181,147.738,2.443000000000012,2.4472545203593095,0.19474932295814185
175.0,509.83333333333337,31414.0,151.879,149.954,1.924999999999983,1.9283716993764515,0.15345730480459657
176.0,512.8333333333333,31594.0,149.984,147.585,2.399000000000001,2.403225957751962,0.19124558736902864
177.0,515.8333333333333,31774.0,151.976,149.648,2.328000000000003,2.332124208848106,0.18558740292398254
178.0,518.8333333333333,31954.0,152.04,149.564,2.475999999999999,2.480411204807573,0.1973878886627372
179.0,521.8333333333333,32134.0,150.038,147.424,2.6140000000000043,2.618683250258519,0.20839139770177884
180.0,524.8333333333333,32314.0,149.348,147.324,2.024000000000001,2.0276464808482144,0.16135746243740573
181.0,527.8333333333333,32494.0,152.005,149.411,2.593999999999994,2.598699391666479,0.20680110829848472
182.0,530.8333333333333,32674.0,149.871,147.424,2.4470000000000027,2.451457595181173,0.19508379817070784
183.0,533.8333333333333,32854.0,151.761,149.552,2.209000000000003,2.2130461711173903,0.17611132798600015
184.0,536.8333333333333,33034.0,149.503,147.114,2.3889999999999816,2.3933998065807036,0.19046363507433803
185.0,539.8333333333333,33214.0,149.554,147.281,2.272999999999996,2.2772089420709865,0.1812173176157574
186.0,542.8333333333333,33394.0,151.738,149.186,2.5519999999999925,2.5567511371878244,0.20346292091706172
187.0,545.8333333333333,33574.0,151.513,149.084,2.429000000000002,2.4335464796335775,0.19365845495556605
188.0,548.8333333333333,33754.0,151.306,148.936,2.3700000000000045,2.374459790889884,0.18895641332771637
189.0,551.8333333333333,33934.0,151.406,148.919,2.4869999999999948,2.4917048747060684,0.1982866241837658
190.0,554.8333333333333,34114.0,151.656,148.866,2.789999999999992,2.7953060391409426,0.2224468088850752
