"Frame","Time (aligned)","Time [ s]","Intensity Ch3-T2","background","Intensity (bg-subst)","bleach-Corrected","Normalized"
1.0,-13.733333333333334,0.0,145.418,137.178,8.240000000000009,8.24008240041201,1.005839215918591
2.0,-10.733333333333334,180.0,145.58,137.102,8.478000000000009,8.47816956169562,1.0349017169942858
3.0,-7.733333333333333,360.0,145.116,137.238,7.878000000000014,7.87823634354515,0.9616698816284389
4.0,-4.733333333333333,540.0,142.59,134.991,7.5989999999999895,7.599303966079271,0.9276215420353106
5.0,-0.3333333333333333,804.0,145.643,136.878,8.765000000000015,8.765438260956447,1.0699676434233731
6.0,2.55,977.0,147.737,139.254,8.483000000000004,8.483508995269709,1.0355534837386746
7.0,5.833333333333334,1174.0,146.661,138.599,8.062000000000012,8.062564359752374,0.9841701842084754
8.0,8.833333333333332,1354.0,144.033,135.837,8.195999999999998,8.196655706227897,1.0005382650414614
9.0,11.833333333333332,1534.0,146.248,137.91,8.337999999999994,8.338750453769906,1.0178832941939195
10.0,14.833333333333332,1714.0,144.124,135.449,8.674999999999983,8.675867543376429,1.0590340464079542
11.0,17.833333333333336,1894.0,144.026,136.019,8.007000000000005,8.00788081844413,0.9774951477658319
12.0,20.833333333333336,2074.0,143.741,135.531,8.210000000000008,8.210985259114372,1.0022874254914922
13.0,23.833333333333336,2254.0,145.674,137.609,8.064999999999998,8.0660485181522,0.9845954837361649
14.0,26.833333333333336,2434.0,143.355,135.217,8.137999999999977,8.139139399756099,0.9935174424582752
15.0,29.833333333333336,2614.0,143.136,135.058,8.078000000000003,8.079211790882047,0.986202280279953
16.0,32.83333333333333,2794.0,145.204,137.541,7.663000000000011,7.664226178091643,0.9355463786635171
17.0,35.83333333333333,2974.0,145.117,137.339,7.777999999999992,7.779322372398461,0.9495957849936036
18.0,38.83333333333333,3154.0,144.324,137.252,7.072000000000003,7.073273074573277,0.8634107157655525
19.0,41.83333333333333,3334.0,143.832,137.505,6.326999999999998,6.328202244209581,0.7724624189646174
20.0,44.83333333333333,3514.0,141.17,134.391,6.778999999999996,6.780355935589036,0.82765530324804
21.0,47.83333333333333,3694.0,141.096,134.744,6.352000000000004,6.3533340600714086,0.7755301754180974
22.0,50.83333333333333,3874.0,142.986,137.252,5.7339999999999804,5.735261618772957,0.7000841459335574
23.0,53.83333333333333,4054.0,142.39,137.071,5.318999999999988,5.320223510698325,0.6494218363938797
24.0,56.83333333333333,4234.0,139.518,134.673,4.844999999999999,4.846162939547162,0.5915548527869242
25.0,59.83333333333333,4414.0,138.941,134.482,4.459000000000003,4.460114889355366,0.5444312623611293
26.0,62.83333333333333,4594.0,140.437,137.162,3.2750000000000057,3.2758516107045996,0.3998722167404559
27.0,65.83333333333334,4774.0,139.798,137.105,2.693000000000012,2.693727208168697,0.328814243754104
28.0,68.83333333333334,4954.0,136.964,134.531,2.4329999999999927,2.433681335382495,0.2970713164293651
29.0,71.83333333333334,5134.0,136.523,134.583,1.9399999999999977,1.940562681584884,0.2368779766072026
30.0,74.83333333333334,5314.0,138.768,136.699,2.0689999999999884,2.0696207931142996,0.2526316673351243
31.0,77.83333333333334,5494.0,136.324,134.506,1.818000000000012,1.8185636673639394,0.22198596620683328
32.0,80.83333333333334,5674.0,138.045,136.783,1.2620000000000005,1.2624039046212931,0.15409740969742725
33.0,83.83333333333334,5854.0,138.31,136.873,1.4370000000000118,1.4374742882532694,0.17546766412524087
34.0,86.83333333333334,6034.0,136.089,134.47,1.6189999999999998,1.6195505535888062,0.19769310303023585
35.0,89.83333333333334,6214.0,136.052,134.151,1.900999999999982,1.9016654664498174,0.23212992404271418
36.0,92.83333333333334,6394.0,138.239,136.688,1.5510000000000161,1.551558460516878,0.1893935363195058
37.0,95.83333333333334,6574.0,135.746,134.575,1.1710000000000207,1.1714333501648573,0.14299293929048498
38.0,98.83333333333334,6754.0,138.075,136.545,1.5300000000000011,1.5305815104799947,0.186832950399102
39.0,101.83333333333334,6934.0,135.55,133.931,1.6189999999999998,1.6196315331409576,0.19770298793250787
40.0,104.83333333333334,7114.0,135.735,134.162,1.5730000000000075,1.5736293258567877,0.19208765281123283
41.0,107.83333333333334,7294.0,135.686,134.18,1.5060000000000002,1.5066175865966012,0.1839077546015454
42.0,110.83333333333334,7474.0,137.922,136.413,1.5089999999999861,1.5096339131124212,0.18427594746057255
43.0,113.83333333333334,7654.0,137.789,136.247,1.5419999999999732,1.5426632025783087,0.18830772202353752
44.0,116.83333333333334,7834.0,137.932,136.126,1.8059999999999832,1.8067948148464263,0.22054938186055478
45.0,119.83333333333334,8014.0,135.15,134.093,1.0570000000000164,1.0574757570373214,0.12908251818673008
46.0,122.83333333333334,8194.0,137.733,136.632,1.100999999999999,1.1015065765036622,0.13445721261042454
47.0,125.83333333333334,8374.0,137.471,136.252,1.218999999999994,1.2195730646596399,0.1488691927463431
48.0,128.83333333333331,8554.0,137.985,136.265,1.7200000000000273,1.720825798175734,0.21005543239264438
49.0,131.83333333333331,8734.0,137.832,136.337,1.4950000000000045,1.4957327295040723,0.18257907661128797
50.0,134.83333333333331,8914.0,135.257,133.847,1.4099999999999966,1.4107051762793752,0.1722000484279376
51.0,137.83333333333331,9094.0,135.228,133.623,1.6050000000000182,1.6058187587657569,0.1960169089017305
52.0,140.83333333333331,9274.0,134.957,133.754,1.203000000000003,1.2036257226737985,0.1469225542080899
53.0,143.83333333333331,9454.0,135.017,133.415,1.6020000000000039,1.6028492850406593,0.19565443520569153
54.0,146.83333333333331,9634.0,137.592,136.145,1.4470000000000027,1.447781591010583,0.17672584199529873
55.0,149.83333333333331,9814.0,137.562,136.032,1.5300000000000011,1.5308417314549325,0.186864714700559
56.0,152.83333333333331,9994.0,134.861,133.75,1.11099999999999,1.1116223342373128,0.13569200922201288
57.0,155.83333333333331,10174.0,137.582,136.06,1.5219999999999914,1.5228677872958754,0.18589136208695847
58.0,158.83333333333331,10354.0,134.969,133.235,1.7339999999999804,1.735006011715176,0.2117863634895661
59.0,161.83333333333331,10534.0,134.722,133.438,1.2840000000000202,1.2847577835241777,0.15682607270537147
60.0,164.83333333333331,10714.0,137.412,135.635,1.7770000000000152,1.778066519923997,0.21704261527312238
61.0,167.83333333333331,10894.0,134.551,133.374,1.1769999999999925,1.1777181890253754,0.14376010848667192
62.0,170.83333333333331,11074.0,137.093,135.229,1.863999999999976,1.8651560383348278,0.22767334062954575
63.0,173.83333333333331,11254.0,134.47,132.843,1.6270000000000095,1.6280253329459746,0.19872759091633652
64.0,176.83333333333331,11434.0,134.431,133.045,1.386000000000024,1.386887323913389,0.16929268309049017
65.0,179.83333333333331,11614.0,136.631,135.445,1.186000000000007,1.1867711505968002,0.14486517313606034
66.0,182.83333333333331,11794.0,134.347,133.07,1.2770000000000152,1.277843098191814,0.155982020263289
67.0,185.83333333333331,11974.0,134.645,133.294,1.350999999999999,1.3519054732996822,0.1650225659383956
68.0,188.83333333333331,12154.0,134.123,132.557,1.5660000000000025,1.5670652421412832,0.19128639713237008
69.0,191.83333333333331,12334.0,133.924,132.818,1.1059999999999945,1.10676340334386,0.1350988958279249
70.0,194.83333333333331,12514.0,134.196,132.77,1.4259999999999877,1.4269985494515216,0.17418892583228507
71.0,197.83333333333331,12694.0,136.746,135.004,1.7420000000000186,1.7432372591750507,0.21279112425393154
72.0,200.83333333333331,12874.0,136.736,134.986,1.75,1.7512604537088836,0.21377048869556253
73.0,203.83333333333331,13054.0,136.528,134.77,1.7579999999999814,1.7592838085330842,0.21474987270330098
74.0,206.83333333333331,13234.0,133.555,132.055,1.5,1.5011104108013247,0.18323551212693498
75.0,209.83333333333331,13414.0,134.029,132.464,1.5649999999999977,1.5661741902663073,0.19117762941917055
76.0,212.83333333333331,13594.0,138.232,136.848,1.3839999999999861,1.3850522398004625,0.16906868052891405
77.0,215.83333333333331,13774.0,133.568,132.265,1.3030000000000257,1.3040036963735386,0.15917535672334085
78.0,218.83333333333331,13954.0,136.073,134.532,1.5409999999999968,1.5422024488941013,0.18825147936697964
79.0,221.83333333333331,14134.0,133.24,132.296,0.9440000000000168,0.9447460546528036,0.11532198158681574
80.0,224.83333333333331,14314.0,136.35,134.273,2.076999999999998,2.078662264817271,0.25373532945481525
81.0,227.83333333333331,14494.0,136.038,134.285,1.7530000000000143,1.754420505226965,0.21415622558346675
82.0,230.83333333333331,14674.0,134.113,132.301,1.8120000000000118,1.813486449360959,0.22136620723756492
83.0,233.83333333333331,14854.0,134.191,132.385,1.8060000000000116,1.8074996022488552,0.22063541289444502
84.0,236.83333333333331,15034.0,136.028,134.654,1.3739999999999952,1.375154644882953,0.1678605143204293
85.0,239.83333333333331,15214.0,133.773,132.44,1.3329999999999984,1.3341335316827156,0.1628532046440878
86.0,242.83333333333331,15394.0,133.668,132.464,1.2040000000000077,1.2050358853668703,0.14709468803741252
87.0,245.83333333333331,15574.0,134.26,132.28,1.9799999999999898,1.9817233495483428,0.24190232126533137
88.0,248.83333333333331,15754.0,133.692,132.025,1.6670000000000016,1.6684676056517789,0.20366424347533738
89.0,251.83333333333331,15934.0,133.541,132.208,1.3329999999999984,1.3341868980913039,0.16285971890255785
90.0,254.83333333333331,16114.0,134.004,131.951,2.0529999999999973,2.0548485317144927,0.2508284669420089
91.0,257.83333333333337,16294.0,133.498,131.938,1.5600000000000023,1.5614202461139752,0.190597331404376
92.0,260.83333333333337,16474.0,136.193,134.477,1.7160000000000082,1.7175794464339642,0.20965916112594266
93.0,263.83333333333337,16654.0,134.088,131.913,2.174999999999983,2.17702369087038,0.26574197876367983
94.0,266.83333333333337,16834.0,133.517,132.233,1.2839999999999918,1.2852075274489785,0.15688097143753257
95.0,269.83333333333337,17014.0,133.687,131.915,1.7720000000000198,1.7736841998682913,0.21650768016512945
96.0,272.83333333333337,17194.0,136.128,134.347,1.7809999999999775,1.7827105809474597,0.21760950022299672
97.0,275.83333333333337,17374.0,136.322,134.49,1.8319999999999936,1.8337779021431309,0.2238431168076984
98.0,278.83333333333337,17554.0,133.503,131.976,1.5269999999999868,1.528497193504979,0.1865785248181429
99.0,281.83333333333337,17734.0,133.804,131.959,1.8449999999999989,1.8468274544406897,0.2254360318798109
100.0,284.83333333333337,17914.0,136.309,134.021,2.288000000000011,2.2902891443814397,0.2795679127063466
101.0,287.83333333333337,18094.0,135.735,134.342,1.3930000000000007,1.3944076407389128,0.17021066293725312
102.0,290.83333333333337,18274.0,136.042,134.199,1.8429999999999893,1.8448808190546402,0.22519841262854157
103.0,293.83333333333337,18454.0,133.388,131.935,1.453000000000003,1.4544973610085432,0.1775456135098045
104.0,296.83333333333337,18634.0,135.793,134.32,1.4730000000000132,1.4745327168746392,0.17999126218851144
105.0,299.83333333333337,18814.0,133.389,131.879,1.5100000000000193,1.5115863326789314,0.18451427276734672
106.0,302.83333333333337,18994.0,133.551,131.628,1.9230000000000018,1.9250394607232237,0.2349831091117947
107.0,305.83333333333337,19174.0,133.659,131.758,1.900999999999982,1.9030351586156704,0.2322971177705442
108.0,308.83333333333337,19354.0,133.306,132.044,1.2620000000000005,1.2633636962634314,0.15421456824340551
109.0,311.83333333333337,19534.0,133.414,131.941,1.4729999999999848,1.474606445353651,0.1800002619766102
110.0,314.83333333333337,19714.0,133.615,131.876,1.7390000000000043,1.7409139524808788,0.21250752599968503
111.0,317.83333333333337,19894.0,133.866,131.599,2.2670000000000243,2.2695177671022546,0.2770324203628477
112.0,320.83333333333337,20074.0,133.53,131.675,1.8549999999999898,1.8570787638904684,0.22668737483465667
113.0,323.83333333333337,20254.0,135.984,134.012,1.9720000000000084,1.9742296194977746,0.24098758677699758
114.0,326.83333333333337,20434.0,135.796,133.981,1.8149999999999977,1.8170702798352925,0.22180367340102325
115.0,329.83333333333337,20614.0,133.418,131.549,1.8689999999999998,1.8711505863501385,0.2284050749960862
116.0,332.83333333333337,20794.0,133.196,131.727,1.468999999999994,1.4707050287254642,0.17952402913674553
117.0,335.83333333333337,20974.0,135.693,134.005,1.6880000000000166,1.6899761158023356,0.20628971515561226
118.0,338.83333333333337,21154.0,133.388,131.296,2.092000000000013,2.0944700170234523,0.2556649287369421
119.0,341.83333333333337,21334.0,135.459,133.929,1.5300000000000011,1.5318217837463446,0.18698434639602649
120.0,344.83333333333337,21514.0,135.706,133.65,2.055999999999983,2.0584686809122887,0.2512703664102032
121.0,347.83333333333337,21694.0,135.358,133.79,1.568000000000012,1.5698984283175201,0.19163223466451845
122.0,350.83333333333337,21874.0,132.759,131.391,1.367999999999995,1.3696699784797346,0.16719101949179602
123.0,353.83333333333337,22054.0,135.34,133.587,1.7530000000000143,1.755157516600715,0.2142461900894356
124.0,356.83333333333337,22234.0,135.386,133.335,2.0509999999999877,2.0535448174607374,0.250669326916575
125.0,359.83333333333337,22414.0,132.745,130.516,2.2290000000000134,2.2317879921320762,0.2724268733029188
126.0,362.83333333333337,22594.0,134.989,133.045,1.9440000000000168,1.946450983795543,0.23759674190478808
127.0,365.83333333333337,22774.0,132.359,130.401,1.9579999999999984,1.9604882396977663,0.2393102226425092
128.0,368.83333333333337,22954.0,131.733,130.39,1.3430000000000177,1.3447201406551805,0.16414547648685096
129.0,371.83333333333337,23134.0,134.474,132.41,2.063999999999993,2.0666642780898923,0.2522707754642065
130.0,374.83333333333337,23314.0,133.616,132.324,1.2920000000000016,1.2936806922132429,0.15791526223569385
131.0,377.83333333333337,23494.0,131.417,129.753,1.6640000000000157,1.6661812684188906,0.20338515795920967
132.0,380.83333333333337,23674.0,131.225,129.377,1.8479999999999848,1.8504409706862088,0.2258771216857721
133.0,383.83333333333337,23854.0,133.505,131.398,2.1069999999999993,2.109804174362592,0.2575367178824003
134.0,386.83333333333337,24034.0,133.11,131.519,1.5910000000000082,1.5931333690380405,0.19446844593287596
135.0,389.83333333333337,24214.0,130.748,129.389,1.3589999999999804,1.3608358889461936,0.16611267181783013
136.0,392.83333333333337,24394.0,133.107,131.235,1.8719999999999857,1.874547652010675,0.22881974340525732
137.0,395.83333333333337,24574.0,130.821,128.946,1.875,1.8775705103975733,0.22918873358787475
138.0,398.83333333333337,24754.0,130.777,128.648,2.1289999999999907,2.13194004816664,0.2602387697392632
139.0,401.83333333333337,24934.0,130.3,128.85,1.450000000000017,1.4520169014217672,0.1772428321291528
140.0,404.83333333333337,25114.0,130.695,128.536,2.158999999999992,2.16202471680772,0.2639111043163545
141.0,407.83333333333337,25294.0,132.833,130.996,1.836999999999989,1.8395919969283945,0.22455282385380676
142.0,410.83333333333337,25474.0,130.636,128.961,1.674999999999983,1.6773801895346014,0.20475217269119797
143.0,413.83333333333337,25654.0,130.741,128.801,1.9400000000000261,1.942776184498858,0.23714817148235504
144.0,416.83333333333337,25834.0,131.049,128.849,2.200000000000017,2.203170282055272,0.26893360543661704
145.0,419.83333333333337,26014.0,131.138,129.089,2.0490000000000066,2.0519732050527395,0.2504774854621607
146.0,422.83333333333337,26194.0,131.243,129.419,1.8239999999999839,1.8266649849656187,0.2229748668692797
147.0,425.83333333333337,26374.0,131.441,129.695,1.7460000000000093,1.7485685073904171,0.21344189183904008
148.0,428.83333333333337,26554.0,131.476,129.53,1.945999999999998,1.9488822123110083,0.23789351381371854
149.0,431.83333333333337,26734.0,134.057,132.178,1.8789999999999907,1.881801796820266,0.22970523252695277
150.0,434.83333333333337,26914.0,131.523,129.922,1.600999999999999,1.6034033020258993,0.1957220622005395
151.0,437.83333333333337,27094.0,134.06,132.097,1.9629999999999939,1.965966369044988,0.23997891951464662
152.0,440.83333333333337,27274.0,133.917,132.186,1.7309999999999945,1.7336331206647362,0.21161877928462575
153.0,443.83333333333337,27454.0,131.741,129.889,1.8520000000000039,1.8548357287793402,0.2264135750632682
154.0,446.83333333333337,27634.0,134.133,132.525,1.608000000000004,1.6104782277455878,0.1965856746491502
155.0,449.83333333333337,27814.0,134.404,132.343,2.061000000000007,2.064197027055904,0.25196960640728333
156.0,452.83333333333337,27994.0,131.983,130.19,1.7930000000000064,1.7957992628573447,0.2192071917156192
157.0,455.83333333333337,28174.0,134.484,131.99,2.4939999999999998,2.4979186553395167,0.304912550581957
158.0,458.83333333333337,28354.0,131.921,130.04,1.8810000000000002,1.8839743291012307,0.22997042625437644
159.0,461.83333333333337,28534.0,134.232,132.294,1.9379999999999882,1.9410838710277607,0.2369415964540796
160.0,464.83333333333337,28714.0,132.142,129.945,2.1970000000000027,2.2005180136604214,0.2686098519311243
161.0,467.83333333333337,28894.0,134.217,132.562,1.6550000000000011,1.6576666961143447,0.20234581268151458
162.0,470.83333333333337,29074.0,134.345,132.406,1.938999999999993,1.9421437257303018,0.23707096936216343
163.0,473.83333333333337,29254.0,131.962,129.867,2.094999999999999,2.098417634615518,0.25614680117347877
164.0,476.83333333333337,29434.0,131.943,130.106,1.8370000000000175,1.8400151517486554,0.22460447694317417
165.0,479.83333333333337,29614.0,132.168,130.161,2.007000000000005,2.010314283531991,0.24539232066376637
166.0,482.83333333333337,29794.0,132.084,130.288,1.7959999999999923,1.7989838358986001,0.21959592186359583
167.0,485.83333333333337,29974.0,132.12,130.165,1.9550000000000125,1.958267577667953,0.23903915387810268
168.0,488.83333333333337,30154.0,131.924,130.106,1.818000000000012,1.8210568069989301,0.22229029539843326
169.0,491.83333333333337,30334.0,132.369,129.997,2.3719999999999857,2.3760120692435907,0.29003182257274346
170.0,494.83333333333337,30514.0,131.895,130.12,1.7750000000000057,1.7780200663290529,0.21703694483862374
171.0,497.83333333333337,30694.0,134.394,132.257,2.1370000000000005,2.1406573961825206,0.2613028671677967
172.0,500.83333333333337,30874.0,134.723,132.39,2.333000000000027,2.3370162129530363,0.28527172921331245
173.0,503.83333333333337,31054.0,132.019,129.929,2.0900000000000034,2.093618829384855,0.25556102711734624
174.0,506.83333333333337,31234.0,134.239,132.293,1.945999999999998,1.9493889875641373,0.2379553741688078
175.0,509.83333333333337,31414.0,131.62,129.752,1.867999999999995,1.8712718620442772,0.2284198787132306
176.0,512.8333333333333,31594.0,132.108,129.925,2.1829999999999927,2.1868454630148038,0.2669408895406138
177.0,515.8333333333333,31774.0,134.099,131.899,2.1999999999999886,2.203897448224141,0.2690223681714534
178.0,518.8333333333333,31954.0,134.501,132.209,2.2920000000000016,2.2960833931417457,0.2802751972147651
179.0,521.8333333333333,32134.0,132.006,129.856,2.1500000000000057,2.153851946463589,0.26291348165733686
180.0,524.8333333333333,32314.0,134.052,132.166,1.8859999999999957,1.8893978571540129,0.23063245812967056
181.0,527.8333333333333,32494.0,134.424,132.457,1.967000000000013,1.9705634939892098,0.24054007513478273
182.0,530.8333333333333,32674.0,134.396,132.261,2.134999999999991,2.1388892381331326,0.26108703404628236
183.0,533.8333333333333,32854.0,132.076,129.817,2.258999999999986,2.2631377548909675,0.2762536336750069
184.0,536.8333333333333,33034.0,134.28,132.168,2.1119999999999948,2.115889657387389,0.25827955238049244
185.0,539.8333333333333,33214.0,134.352,132.256,2.0960000000000036,2.0998811889928746,0.25632545234659093
186.0,542.8333333333333,33394.0,134.531,132.079,2.451999999999998,2.4565649641005325,0.2998646442201129
187.0,545.8333333333333,33574.0,131.957,129.87,2.086999999999989,2.0909063412907556,0.255229922795183
188.0,548.8333333333333,33754.0,131.593,130.034,1.5589999999999975,1.5619336767921164,0.1906600041648698
189.0,551.8333333333333,33934.0,131.967,130.007,1.960000000000008,1.963707902864465,0.23970323612438316
190.0,554.8333333333333,34114.0,134.309,132.228,2.080999999999989,2.084957658585049,0.25450378705312326
