"Frame","Time (aligned)","Time [ s]","Intensity Ch3-T2","background","Intensity (bg-subst)","bleach-Corrected","Normalized"
1.0,-13.733333333333334,0.0,194.651,190.733,3.9180000000000064,3.918039180195907,0.9667670444909794
2.0,-10.733333333333334,180.0,192.335,188.38,3.9550000000000125,3.9550791007910178,0.9759065586497238
3.0,-7.733333333333333,360.0,194.148,190.329,3.8189999999999884,3.8191145717185555,0.9423576276968639
4.0,-4.733333333333333,540.0,192.635,188.068,4.566999999999979,4.567182683653628,1.1269416924272364
5.0,-0.3333333333333333,804.0,192.278,188.274,4.003999999999991,4.004200205005074,0.988027076735197
6.0,2.55,977.0,185.814,181.029,4.784999999999997,4.7852871086131685,1.180758451426057
7.0,5.833333333333334,1174.0,179.585,175.283,4.302000000000021,4.302301150540167,1.0615827909127458
8.0,8.833333333333332,1354.0,180.386,176.241,4.144999999999982,4.145331613264335,1.0228509230962313
9.0,11.833333333333332,1534.0,178.97,174.237,4.733000000000004,4.733425989169229,1.1679618409627834
10.0,14.833333333333332,1714.0,180.606,176.205,4.400999999999982,4.401440122005716,1.086045101275051
11.0,17.833333333333336,1894.0,181.151,176.848,4.302999999999997,4.303473356034102,1.0618720298888733
12.0,20.833333333333336,2074.0,181.266,177.197,4.068999999999988,4.06948830929796,1.0041367644449803
13.0,23.833333333333336,2254.0,181.852,177.596,4.256,4.256553315964759,1.0502946192558922
14.0,26.833333333333336,2434.0,179.787,175.948,3.8389999999999986,3.8395374976239545,0.9473969371088831
15.0,29.833333333333336,2614.0,181.793,178.037,3.7560000000000002,3.756563442257113,0.9269232821536456
16.0,32.83333333333333,2794.0,179.877,176.13,3.747000000000014,3.7475995679641723,0.9247114670443997
17.0,35.83333333333333,2974.0,181.698,177.917,3.781000000000006,3.7816428246385523,0.9331115613584878
18.0,38.83333333333333,3154.0,179.773,176.045,3.7280000000000086,3.7286711003972326,0.9200409117475231
19.0,41.83333333333333,3334.0,181.602,177.899,3.703000000000003,3.703703636843386,0.9138802482527846
20.0,44.83333333333333,3514.0,181.764,178.147,3.6170000000000186,3.6177234723448417,0.8926648428690769
21.0,47.83333333333333,3694.0,179.596,175.756,3.8400000000000034,3.840806484677931,0.9477100567095933
22.0,50.83333333333333,3874.0,181.333,177.795,3.538000000000011,3.53877844562589,0.8731853413510431
23.0,53.83333333333333,4054.0,179.154,175.405,3.7489999999999952,3.749862369168648,0.925269807972632
24.0,56.83333333333333,4234.0,179.213,175.535,3.6779999999999973,3.6788828259348723,0.9077557709567986
25.0,59.83333333333333,4414.0,178.544,175.352,3.1920000000000073,3.19279809975832,0.7878154966294716
26.0,62.83333333333333,4594.0,178.469,175.052,3.4170000000000016,3.417888535504612,0.8433560375228755
27.0,65.83333333333334,4774.0,178.123,174.852,3.2709999999999866,3.2718832892386676,0.8073295829825085
28.0,68.83333333333334,4954.0,179.986,176.719,3.266999999999996,3.2679148880783497,0.8063503892366911
29.0,71.83333333333334,5134.0,180.386,176.646,3.740000000000009,3.7410847572822123,0.923103952678476
30.0,74.83333333333334,5314.0,178.31,174.756,3.554000000000002,3.555066359945996,0.8772043462828375
31.0,77.83333333333334,5494.0,179.995,176.618,3.3770000000000095,3.378047032281628,0.8335252393742373
32.0,80.83333333333334,5674.0,179.59,176.567,3.022999999999996,3.023967514794107,0.746156942914505
33.0,83.83333333333334,5854.0,179.466,176.219,3.247000000000014,3.2480716868186135,0.8014541255310904
34.0,86.83333333333334,6034.0,179.221,175.983,3.2379999999999995,3.2391011071776123,0.799240655892824
35.0,89.83333333333334,6214.0,177.274,174.231,3.0430000000000064,3.044065236405503,0.7511160089242226
36.0,92.83333333333334,6394.0,179.301,176.08,3.220999999999975,3.222159768745824,0.7950604200829814
37.0,95.83333333333334,6574.0,177.022,173.698,3.323999999999984,3.325230107555848,0.8204927861832787
38.0,98.83333333333334,6754.0,179.119,176.01,3.109000000000009,3.1101816444982444,0.7674300786679006
39.0,101.83333333333334,6934.0,177.107,173.808,3.2990000000000066,3.3002868609215756,0.8143380981570555
40.0,104.83333333333334,7114.0,178.548,175.561,2.9869999999999948,2.9881950389918592,0.7373301678071321
41.0,107.83333333333334,7294.0,178.276,175.268,3.0080000000000098,3.0092335328569657,0.7425213671798484
42.0,110.83333333333334,7474.0,178.027,175.22,2.806999999999988,2.8081791876120525,0.6929116756492051
43.0,113.83333333333334,7654.0,178.203,175.347,2.8559999999999945,2.857228344075044,0.7050144407946345
44.0,116.83333333333334,7834.0,176.28,173.152,3.1280000000000143,3.1293766228348283,0.7721663948766119
45.0,119.83333333333334,8014.0,178.147,174.776,3.370999999999981,3.3725172913649337,0.8321607886791408
46.0,122.83333333333334,8194.0,176.037,173.02,3.016999999999996,3.0183881392475453,0.7447802449900638
47.0,125.83333333333334,8374.0,178.129,175.11,3.018999999999977,3.020419263500773,0.7452814201700396
48.0,128.83333333333331,8554.0,175.792,173.093,2.6990000000000123,2.700295830974566,0.6662917086071771
49.0,131.83333333333331,8734.0,175.734,172.876,2.858000000000004,2.859400763158951,0.7055504801450729
50.0,134.83333333333331,8914.0,177.558,174.576,2.9819999999999993,2.983491372812132,0.736169549129853
51.0,137.83333333333331,9094.0,177.589,174.503,3.0860000000000127,3.087574261402548,0.7618517595307222
52.0,140.83333333333331,9274.0,175.23,172.45,2.780000000000001,2.781445975921158,0.6863153179132251
53.0,143.83333333333331,9454.0,175.39,172.626,2.7639999999999816,2.7654653082723732,0.68237212538215
54.0,146.83333333333331,9634.0,177.163,174.358,2.805000000000007,2.806515109042631,0.6925010681370362
55.0,149.83333333333331,9814.0,177.043,174.432,2.6110000000000184,2.612436444986179,0.6446126096966507
56.0,152.83333333333331,9994.0,174.59,171.768,2.8220000000000027,2.8235807625722127,0.6967119784077894
57.0,155.83333333333331,10174.0,174.493,171.624,2.8689999999999998,2.870635796157616,0.7083226983765237
58.0,158.83333333333331,10354.0,176.572,173.608,2.9639999999999986,2.965719618641198,0.7317844101700136
59.0,161.83333333333331,10534.0,176.421,173.697,2.7239999999999895,2.725607634205445,0.6725373371154226
60.0,164.83333333333331,10714.0,176.119,173.453,2.665999999999997,2.667600079975987,0.6582241081809025
61.0,167.83333333333331,10894.0,174.182,171.438,2.7439999999999998,2.7456743506250216,0.677488752666255
62.0,170.83333333333331,11074.0,173.557,171.229,2.3279999999999745,2.32944380753406,0.5747848353586175
63.0,173.83333333333331,11254.0,175.503,172.929,2.573999999999984,2.575622130917571,0.6355287634229921
64.0,176.83333333333331,11434.0,175.475,172.814,2.6610000000000014,2.662703585089081,0.6570159094691319
65.0,179.83333333333331,11614.0,172.993,170.805,2.187999999999988,2.189422662315151,0.5402349438175231
66.0,182.83333333333331,11794.0,173.43,170.734,2.695999999999998,2.6977799473180006,0.6656709201731985
67.0,185.83333333333331,11974.0,174.957,172.225,2.7319999999999993,2.7338310533343697,0.6745664466371103
68.0,188.83333333333331,12154.0,174.749,172.067,2.681999999999988,2.683824380218963,0.6622274164872916
69.0,191.83333333333331,12334.0,172.362,170.06,2.3019999999999925,2.303588928117152,0.5684052040660318
70.0,194.83333333333331,12514.0,174.119,171.696,2.423000000000002,2.424696693773541,0.5982882632402075
71.0,197.83333333333331,12694.0,174.071,171.746,2.3249999999999886,2.3266513361549537,0.5740957995481412
72.0,200.83333333333331,12874.0,171.939,169.449,2.4899999999999807,2.4917934455629065,0.6148442305082802
73.0,203.83333333333331,13054.0,171.992,169.235,2.7569999999999766,2.7590133447814122,0.6807801184142646
74.0,206.83333333333331,13234.0,173.324,170.936,2.3880000000000052,2.389767773995714,0.5896696336176258
75.0,209.83333333333331,13414.0,171.449,168.947,2.5020000000000095,2.5038772038634645,0.6178258697317015
76.0,212.83333333333331,13594.0,171.525,169.06,2.4650000000000034,2.4668741120723836,0.608695442994595
77.0,215.83333333333331,13774.0,173.378,170.806,2.5719999999999743,2.5739812026651125,0.635123868197628
78.0,218.83333333333331,13954.0,173.199,170.553,2.646000000000015,2.648064685122533,0.6534037949893193
79.0,221.83333333333331,14134.0,173.304,170.59,2.7139999999999986,2.7161449071267607,0.6702024312428817
80.0,224.83333333333331,14314.0,170.697,168.341,2.3559999999999945,2.35788555412108,0.5818027701018632
81.0,227.83333333333331,14494.0,170.853,168.396,2.457000000000022,2.458990976236541,0.6067502975831197
82.0,230.83333333333331,14674.0,172.782,170.317,2.4650000000000034,2.46702212895957,0.6087319658168484
83.0,233.83333333333331,14854.0,172.56,170.47,2.0900000000000034,2.091735420099717,0.5161308442673069
84.0,236.83333333333331,15034.0,172.612,170.46,2.151999999999987,2.153808439438215,0.5314472172509764
85.0,239.83333333333331,15214.0,170.991,168.889,2.102000000000004,2.103787459562698,0.519104656941414
86.0,242.83333333333331,15394.0,170.935,168.517,2.4180000000000064,2.4200803744327923,0.5971491971920576
87.0,245.83333333333331,15574.0,172.755,170.375,2.3799999999999955,2.382071500972258,0.5877705961699936
88.0,248.83333333333331,15754.0,170.267,168.102,2.164999999999992,2.166906038533944,0.5346790193298603
89.0,251.83333333333331,15934.0,172.438,169.94,2.4979999999999905,2.5002242096264577,0.6169245019097807
90.0,254.83333333333331,16114.0,170.364,168.142,2.2220000000000084,2.224000700180042,0.5487669941451225
91.0,257.83333333333337,16294.0,170.737,168.238,2.4989999999999952,2.501275125024879,0.6171838128372664
92.0,260.83333333333337,16474.0,172.156,169.945,2.2110000000000127,2.213035055982225,0.5460612469730044
93.0,263.83333333333337,16654.0,171.84,169.744,2.0960000000000036,2.0979501866962575,0.5176643234538112
94.0,266.83333333333337,16834.0,170.397,167.749,2.647999999999996,2.6504902902530465,0.6540023074072098
95.0,269.83333333333337,17014.0,170.08,167.834,2.2460000000000093,2.2481347138285295,0.5547220058164164
96.0,272.83333333333337,17194.0,169.732,167.928,1.804000000000002,1.8057326715492765,0.44556033202485895
97.0,275.83333333333337,17374.0,171.897,169.914,1.983000000000004,1.9849244432040658,0.489775484429522
98.0,278.83333333333337,17554.0,171.988,169.664,2.3240000000000123,2.3262786363494565,0.5740038367389727
99.0,281.83333333333337,17734.0,171.8,169.463,2.3370000000000175,2.3393147756248927,0.5772204737503096
100.0,284.83333333333337,17914.0,169.896,167.435,2.4609999999999843,2.4634622309102534,0.6078535692624639
101.0,287.83333333333337,18094.0,171.389,169.27,2.1189999999999998,2.12114127115991,0.523386669544374
102.0,290.83333333333337,18274.0,171.492,169.057,2.4350000000000023,2.437484967117786,0.6014437399101831
103.0,293.83333333333337,18454.0,171.25,169.201,2.0490000000000066,2.051111557265319,0.5061070007062902
104.0,296.83333333333337,18634.0,171.153,169.102,2.0509999999999877,2.0531341495654036,0.5066060706466947
105.0,299.83333333333337,18814.0,171.102,168.781,2.320999999999998,2.323438329899173,0.5733029977360683
106.0,302.83333333333337,18994.0,170.819,168.874,1.9449999999999932,1.9470627930871833,0.4804332104246919
107.0,305.83333333333337,19174.0,168.768,166.764,2.0039999999999907,2.0061454275990647,0.4950117129155568
108.0,308.83333333333337,19354.0,170.999,168.648,2.350999999999999,2.3535404515969294,0.5807306261716758
109.0,311.83333333333337,19534.0,168.58,166.679,1.9010000000000105,1.9030732196994806,0.4695788856217628
110.0,314.83333333333337,19714.0,170.029,168.304,1.7249999999999943,1.7268985440077622,0.4261081946206271
111.0,317.83333333333337,19894.0,168.316,166.171,2.1450000000000102,2.147382271916324,0.5298615753783926
112.0,320.83333333333337,20074.0,170.444,168.173,2.2709999999999866,2.273544944903101,0.560991921165902
113.0,323.83333333333337,20254.0,170.406,168.077,2.3290000000000077,2.3316332575103003,0.5753250770420825
114.0,326.83333333333337,20434.0,169.912,168.096,1.8160000000000025,1.8180714204853443,0.4486048895938422
115.0,329.83333333333337,20614.0,168.257,166.024,2.233000000000004,2.235569427137436,0.5516215505838776
116.0,332.83333333333337,20794.0,168.006,166.211,1.7949999999999875,1.7970834081430909,0.44342614641934286
117.0,335.83333333333337,20974.0,167.82,166.22,1.5999999999999943,1.601873095547216,0.3952584563369181
118.0,338.83333333333337,21154.0,169.694,167.85,1.843999999999994,1.8461772042979014,0.45553992630478435
119.0,341.83333333333337,21334.0,167.802,165.534,2.2680000000000007,2.2707005264945805,0.5602900675468773
120.0,344.83333333333337,21514.0,167.516,165.471,2.0449999999999875,2.047455472989124,0.505204870424395
121.0,347.83333333333337,21694.0,169.545,167.279,2.265999999999991,2.268743519494553,0.5598071806265453
122.0,350.83333333333337,21874.0,167.404,165.333,2.070999999999998,2.0735281618651595,0.5116382456938473
123.0,353.83333333333337,22054.0,167.056,165.306,1.75,1.7521538243304198,0.43233987623288345
124.0,356.83333333333337,22234.0,166.667,164.877,1.789999999999992,1.7922209767209778,0.4422263527881926
125.0,359.83333333333337,22414.0,167.915,166.066,1.8489999999999895,1.8513126951333156,0.4568070967103431
126.0,362.83333333333337,22594.0,166.015,163.916,2.0989999999999895,2.1016464068862084,0.5185763571789687
127.0,365.83333333333337,22774.0,165.852,163.579,2.272999999999996,2.2758885438370884,0.5615701987457525
128.0,368.83333333333337,22954.0,167.346,165.05,2.2959999999999923,2.298940761685959,0.5672582798224712
129.0,371.83333333333337,23134.0,164.995,163.354,1.6409999999999911,1.64311825598135,0.40543560363396736
130.0,374.83333333333337,23314.0,166.526,164.748,1.77800000000002,1.780312903061276,0.43928806334081777
131.0,377.83333333333337,23494.0,164.505,162.661,1.843999999999994,1.8464172229353337,0.45559915034468323
132.0,380.83333333333337,23674.0,164.115,162.315,1.8000000000000114,1.8023775688502295,0.4447324682462841
133.0,383.83333333333337,23854.0,163.76,161.979,1.7809999999999775,1.7833703059040007,0.4400424703730444
134.0,386.83333333333337,24034.0,164.141,161.9,2.2409999999999854,2.2440049528687664,0.553702996915815
135.0,389.83333333333337,24214.0,163.776,161.716,2.0600000000000023,2.062782878020016,0.5089868719256384
136.0,392.83333333333337,24394.0,165.143,163.541,1.6020000000000039,1.604180202201459,0.3958277295317146
137.0,395.83333333333337,24574.0,165.003,163.509,1.4939999999999998,1.496048182684786,0.3691464055032632
138.0,398.83333333333337,24754.0,164.957,163.052,1.9050000000000011,1.907630714775702,0.47070343691961386
139.0,401.83333333333337,24934.0,164.783,163.184,1.5989999999999895,1.6012241554299058,0.39509833187404014
140.0,404.83333333333337,25114.0,164.837,163.062,1.7749999999999773,1.777486740312028,0.43859071426320995
141.0,407.83333333333337,25294.0,162.864,160.906,1.9579999999999984,1.9607627272650054,0.48381363728253457
142.0,410.83333333333337,25474.0,164.636,162.954,1.681999999999988,1.6843901365953482,0.41561934407317974
143.0,413.83333333333337,25654.0,164.784,163.085,1.6989999999999839,1.7014313079708678,0.4198242134294254
144.0,416.83333333333337,25834.0,163.243,161.285,1.9579999999999984,1.9608215510291753,0.48382815190937134
145.0,419.83333333333337,26014.0,165.089,163.463,1.6260000000000048,1.6283594101589818,0.4017938927935272
146.0,422.83333333333337,26194.0,163.696,161.782,1.9139999999999873,1.9167964809343212,0.47296506837660734
147.0,425.83333333333337,26374.0,163.692,161.949,1.742999999999995,1.7455640941474642,0.4307138756545405
148.0,428.83333333333337,26554.0,163.788,161.788,2.0,2.0029621914809974,0.49422625681564436
149.0,431.83333333333337,26734.0,165.473,163.668,1.8050000000000068,1.807691454635769,0.44604365719039046
150.0,434.83333333333337,26914.0,165.32,163.753,1.5670000000000073,1.5693522637567754,0.38723401681794917
151.0,437.83333333333337,27094.0,163.593,161.841,1.7519999999999811,1.7546475183733026,0.43295518943135486
152.0,440.83333333333337,27274.0,165.606,164.11,1.495999999999981,1.4982756490551246,0.3696960276434501
153.0,443.83333333333337,27454.0,165.303,163.649,1.6539999999999964,1.6565325569119955,0.4087455511531712
154.0,446.83333333333337,27634.0,165.359,163.673,1.686000000000007,1.6885984402854886,0.4166577332096136
155.0,449.83333333333337,27814.0,165.436,163.74,1.695999999999998,1.6986308383730213,0.41913320407709886
156.0,452.83333333333337,27994.0,165.595,163.683,1.9120000000000061,1.9149850477318693,0.472518101451856
157.0,455.83333333333337,28174.0,163.495,161.659,1.8360000000000127,1.8388847839628648,0.4537405385676416
158.0,458.83333333333337,28354.0,165.424,163.833,1.5910000000000082,1.5935157669325215,0.3931963049614272
159.0,461.83333333333337,28534.0,165.49,163.706,1.7840000000000202,1.7868388162608801,0.4408983172271177
160.0,464.83333333333337,28714.0,163.597,161.398,2.1990000000000123,2.202521216221797,0.5434669814937775
161.0,467.83333333333337,28894.0,163.254,161.572,1.681999999999988,1.6847102011264687,0.41569831925095796
162.0,470.83333333333337,29074.0,163.111,161.504,1.6069999999999993,1.6096054498445616,0.39716639675486665
163.0,473.83333333333337,29254.0,163.059,161.401,1.657999999999987,1.6607047437673046,0.40977502854470904
164.0,476.83333333333337,29434.0,163.348,161.543,1.8050000000000068,1.80796262869151,0.4461105687572111
165.0,479.83333333333337,29614.0,165.053,163.178,1.875,1.8780963037481184,0.4634158897699473
166.0,482.83333333333337,29794.0,164.911,163.268,1.6430000000000007,1.6457296449785155,0.40607995778835326
167.0,485.83333333333337,29974.0,163.064,161.665,1.399000000000001,1.4013382819219695,0.3457769580236891
168.0,488.83333333333337,30154.0,164.823,163.343,1.4800000000000182,1.4824884897461121,0.36580058284462624
169.0,491.83333333333337,30334.0,164.915,163.429,1.48599999999999,1.4885134632782349,0.3672872310344219
170.0,494.83333333333337,30514.0,164.576,162.883,1.6929999999999836,1.6958805477718577,0.41845457627536126
171.0,497.83333333333337,30694.0,163.168,161.121,2.046999999999997,2.050503364522982,0.5059569305633059
172.0,500.83333333333337,30874.0,162.713,161.191,1.5219999999999914,1.5246200926337163,0.37619645775297267
173.0,503.83333333333337,31054.0,162.572,161.151,1.4209999999999923,1.4234604576822287,0.3512355533806621
174.0,506.83333333333337,31234.0,162.492,161.029,1.4629999999999939,1.4655478359744727,0.3616205159730811
175.0,509.83333333333337,31414.0,164.172,162.945,1.2270000000000039,1.2291491299402257,0.3032896857176283
176.0,512.8333333333333,31594.0,162.217,161.022,1.1950000000000216,1.1971050519023116,0.29538288407696595
177.0,515.8333333333333,31774.0,164.39,162.581,1.8089999999999975,1.8122047653806754,0.4471573061073736
178.0,518.8333333333333,31954.0,163.678,162.623,1.0550000000000068,1.0568795723231046,0.26078257350826417
179.0,521.8333333333333,32134.0,162.215,160.502,1.7129999999999939,1.7160690159498162,0.4234360337890733
180.0,524.8333333333333,32314.0,161.822,160.298,1.524000000000001,1.5267456703619957,0.3767209391079809
181.0,527.8333333333333,32494.0,162.242,160.508,1.7339999999999804,1.7371413820931514,0.42863559106757027
182.0,530.8333333333333,32674.0,161.475,160.14,1.335000000000008,1.3374319123689749,0.3300082101435804
183.0,533.8333333333333,32854.0,163.791,162.17,1.6210000000000093,1.62396914593993,0.4007106053202827
184.0,536.8333333333333,33034.0,161.683,160.075,1.608000000000004,1.6109614436926794,0.3975009850794345
185.0,539.8333333333333,33214.0,161.694,160.171,1.5229999999999961,1.5258201578416672,0.37649257104866185
186.0,542.8333333333333,33394.0,163.61,162.064,1.5460000000000207,1.5488782359296398,0.3821820981257333
187.0,545.8333333333333,33574.0,161.303,159.944,1.3590000000000089,1.3615437076253811,0.3359577394783641
188.0,548.8333333333333,33754.0,161.008,159.934,1.0740000000000123,1.0760210191627677,0.26550568094475924
189.0,551.8333333333333,33934.0,161.233,159.565,1.6680000000000064,1.6711555010091463,0.41235372855936353
190.0,554.8333333333333,34114.0,160.886,159.395,1.4909999999999854,1.493835592960257,0.36860045414078935
191.0,557.8333333333333,34294.0,161.222,159.439,1.7830000000000155,1.7864087843527736,0.44079220785512924
