"Frame","Time (aligned)","Time [ s]","Intensity Ch3-T2","background","Intensity (bg-subst)","bleach-Corrected","Normalized"
1.0,-11.3,0.0,254.323,246.919,7.404,7.4285896048342,1.0068089177274
2.0,-8.8,150.0,250.116,242.888,7.22800000000001,7.27573839106693,0.98609274234383
3.0,-6.3,300.0,247.289,240.009,7.28,7.35171382316702,0.996389817109784
4.0,-3.8,450.0,242.226,235.097,7.12899999999999,7.22210346239373,0.978823512602736
5.0,-0.333333333333333,658.0,241.789,234.297,7.49199999999999,7.61360981742125,1.03188501021625
6.0,1.9,792.0,264.342,257.48,6.86199999999997,6.99489951249407,0.948030189095807
7.0,4.4,942.0,263.686,257.212,6.47399999999999,6.61944872178098,0.897144728414043
8.0,6.9,1092.0,259.956,253.008,6.94800000000001,7.12537980550129,0.965714396943534
9.0,9.4,1242.0,259.68,252.675,7.005,7.20504050606567,0.976510942181197
10.0,11.9,1392.0,255.467,248.69,6.77700000000002,6.99080392358463,0.94747510722203
11.0,14.4,1542.0,254.627,247.983,6.64400000000001,6.87325014021477,0.931542850400042
12.0,16.9,1692.0,253.614,246.553,7.06100000000001,7.32526664538869,0.992805387783036
13.0,19.4,1842.0,252.825,246.553,6.27199999999999,6.52484281381149,0.884322634735401
14.0,21.9,1992.0,250.12,243.143,6.977,7.27816414110135,0.986421508219554
15.0,24.4,2142.0,250.105,242.997,7.10799999999998,7.43485089615184,1.00765752079615
16.0,26.9,2292.0,249.134,242.137,6.99699999999999,7.33822968760161,0.994562290128583
17.0,29.4,2442.0,247.835,240.948,6.887,7.24181142125671,0.981494564550542
18.0,31.9,2592.0,247.709,240.024,7.685,8.1018103694584,1.09805163074278
19.0,34.4,2742.0,245.842,239.094,6.74800000000002,7.13210902231261,0.966626418720931
20.0,36.9,2892.0,246.501,239.375,7.12600000000001,7.55052738664074,1.02333534503883
21.0,39.4,3042.0,242.459,235.732,6.727,7.14538420146154,0.96842562549672
22.0,41.9,3192.0,242.494,236.497,5.99699999999999,6.385505122155,0.865437969139656
23.0,44.4,3342.0,241.269,235.37,5.899,6.2962397869551,0.853339692036732
24.0,46.9,3492.0,242.671,236.642,6.029,6.450221720427,0.87420911571408
25.0,49.4,3642.0,243.299,237.429,5.87,6.29475794310776,0.853138855312733
26.0,51.9,3792.0,245.339,240.405,4.934,5.30318726107104,0.71874965650951
27.0,54.4,3942.0,242.167,237.321,4.846,5.22039845838344,0.707529154467021
28.0,56.9,4092.0,239.432,235.261,4.17099999999999,4.50327663962245,0.610336459671281
29.0,59.4,4242.0,238.469,235.814,2.655,2.87281162932404,0.389356866002156
30.0,61.9,4392.0,237.26,235.566,1.69399999999999,1.83694619030057,0.248964326226401
31.0,64.4,4542.0,236.916,235.726,1.19,1.2931735998952,0.175265936308672
32.0,66.9,4692.0,235.121,234.102,1.01900000000001,1.10967945466194,0.150396674228104
33.0,69.4,4842.0,235.551,234.216,1.33499999999998,1.4568169542266,0.197444788181236
34.0,71.9,4992.0,232.596,231.812,0.783999999999992,0.857288944577461,0.116189774961861
35.0,74.4,5142.0,231.14,230.243,0.896999999999991,0.982829833310643,0.133204537257215
36.0,76.9,5292.0,232.63,231.744,0.885999999999996,0.972706530063986,0.131832509385469
37.0,79.4,5442.0,232.85,231.815,1.035,1.13851401061562,0.15430466882966
38.0,81.9,5592.0,231.215,229.997,1.21799999999999,1.34240369066073,0.181938171152688
39.0,84.4,5742.0,228.138,226.901,1.23699999999999,1.36593950715386,0.185128018915426
40.0,86.9,5892.0,226.683,225.725,0.957999999999998,1.05984288142982,0.143642241821927
41.0,89.4,6042.0,226.119,225.693,0.425999999999988,0.472159003672848,0.0639924831994699
42.0,91.9,6192.0,225.229,224.084,1.14500000000001,1.27138048133175,0.172312279251014
43.0,94.4,6342.0,224.803,224.258,0.544999999999988,0.606243084674055,0.082165118337296
44.0,96.9,6492.0,224.394,223.453,0.941000000000003,1.04859845334324,0.142118266064141
45.0,99.4,6642.0,225.327,224.068,1.25899999999999,1.40541261677102,0.19047787412174
46.0,101.9,6792.0,225.181,224.084,1.09700000000001,1.22668396706481,0.166254487456189
47.0,104.4,6942.0,222.671,222.052,0.619,0.693352757367599,0.0939712349695976
48.0,106.9,7092.0,225.029,224.041,0.988,1.10853101267154,0.150241024003911
49.0,109.4,7242.0,224.957,224.545,0.412000000000006,0.463025986282749,0.0627546703920258
50.0,111.9,7392.0,225.814,224.867,0.947000000000003,1.06602032921417,0.144479481439261
51.0,114.4,7542.0,223.834,222.908,0.926000000000016,1.04405681588135,0.141502730499389
52.0,116.9,7692.0,224.555,222.944,1.61100000000002,1.81926837742722,0.246568423290099
53.0,119.4,7842.0,226.639,225.422,1.21700000000001,1.37648188830657,0.186556845102259
54.0,121.9,7992.0,224.654,223.906,0.74799999999999,0.847326879303706,0.114839599936702
55.0,124.4,8142.0,223.948,222.733,1.215,1.37843424613715,0.186821451357147
56.0,126.9,8292.0,221.919,220.651,1.268,1.44072305129344,0.195263555153691
57.0,129.4,8442.0,222.465,221.718,0.747000000000014,0.850011039493857,0.115203388564128
58.0,131.9,8592.0,219.377,218.502,0.875,0.997116998211481,0.135140900119668
59.0,134.4,8742.0,221.105,220.291,0.813999999999993,0.928940960642749,0.125900890070539
60.0,136.9,8892.0,220.663,220.047,0.616000000000014,0.703982311876374,0.0954118759041755
61.0,139.4,9042.0,220.879,219.762,1.11699999999999,1.27833113162395,0.173254312270799
62.0,141.9,9192.0,219.696,218.884,0.812000000000012,0.93056636678166,0.126121184027083
63.0,144.4,9342.0,220.954,220.234,0.719999999999999,0.826260634971933,0.111984457334336
64.0,146.9,9492.0,221.511,220.366,1.14499999999998,1.31575657004842,0.17832664324613
65.0,149.4,9642.0,221.425,220.234,1.191,1.37043898311387,0.185737840262764
66.0,151.9,9792.0,222.465,221.139,1.32599999999999,1.5277836904255,0.207063026187084
67.0,154.4,9942.0,222.161,221.095,1.066,1.22981165877835,0.166678388637517
68.0,156.9,10092.0,219.838,219.277,0.561000000000007,0.64803744455198,0.0878295763938321
69.0,159.4,10242.0,221.317,220.282,1.035,1.19708871782896,0.162243394848026
70.0,161.9,10392.0,218.964,217.847,1.11699999999999,1.29354322366277,0.175316032023362
71.0,164.4,10542.0,219.605,218.121,1.48399999999998,1.7206661556455,0.233204702654225
72.0,166.9,10692.0,220.063,219.206,0.856999999999999,0.994882431674228,0.134838045656487
73.0,169.4,10842.0,219.708,219.035,0.673000000000002,0.78221768227193,0.106015243809261
74.0,171.9,10992.0,221.445,220.319,1.126,1.31028599345535,0.177585207039258
75.0,174.4,11142.0,218.794,217.313,1.48100000000002,1.72540695312801,0.233847230702809
76.0,176.9,11292.0,219.487,217.691,1.79599999999999,2.0948133980594,0.283913491299689
77.0,179.4,11442.0,216.15,215.296,0.854000000000013,0.997225250332777,0.135155571706992
78.0,181.9,11592.0,217.897,216.648,1.249,1.46011878983593,0.197892291370021
79.0,184.4,11742.0,217.844,216.257,1.58699999999999,1.85732161262942,0.251725840591094
80.0,186.9,11892.0,218.026,216.129,1.89700000000002,2.22257352118927,0.301229030068097
81.0,189.4,12042.0,218.041,216.835,1.20599999999999,1.41451977272239,0.19171218188603
82.0,191.9,12192.0,218.521,217.135,1.386,1.62739226663444,0.220563139686963
83.0,194.4,12342.0,218.586,217.183,1.40300000000002,1.64910567462951,0.223505993440718
84.0,196.9,12492.0,216.357,215.507,0.849999999999994,1.0001522874291,0.135552277839363
85.0,199.4,12642.0,216.793,215.558,1.23500000000001,1.4546725661797,0.197154155756572
86.0,201.9,12792.0,216.117,215.474,0.643000000000001,0.758149995246522,0.10275331076204
87.0,204.4,12942.0,215.066,214.006,1.06,1.25109643074303,0.169563148647935
88.0,206.9,13092.0,213.848,212.786,1.06200000000001,1.25471522915615,0.170053610324728
89.0,209.4,13242.0,212.129,211.148,0.980999999999995,1.16016687335105,0.157239316785198
90.0,211.9,13392.0,211.417,209.905,1.512,1.78990179450227,0.242588322201626
91.0,214.4,13542.0,213.493,211.978,1.51499999999999,1.79519343182209,0.243305506475678
92.0,216.9,13692.0,214.545,212.546,1.999,2.37098032909942,0.321342847845589
93.0,219.4,13842.0,215.1,212.804,2.29599999999999,2.72583145239606,0.369436401858607
94.0,221.9,13992.0,213.628,212.36,1.26799999999997,1.50679381574619,0.204218234088815
95.0,224.4,14142.0,215.696,214.597,1.09899999999999,1.30717975864827,0.17716421394761
96.0,226.9,14292.0,213.103,211.904,1.19900000000001,1.42743229383592,0.193462237024219
97.0,229.4,14442.0,212.552,211.32,1.232,1.46805221222555,0.198967521102024
98.0,231.9,14592.0,211.953,210.665,1.28800000000001,1.53616172776496,0.20819851531155
99.0,234.4,14742.0,210.284,209.009,1.27500000000001,1.52200979687322,0.206280480935875
100.0,236.9,14892.0,211.268,209.871,1.39699999999999,1.66911335393039,0.226217666990438
101.0,239.4,15042.0,210.356,208.847,1.50899999999999,1.80449997099802,0.244566836974998
102.0,241.9,15192.0,211.23,209.706,1.524,1.82400886637259,0.24721090952214
103.0,244.4,15342.0,209.559,208.227,1.33199999999999,1.59557321617099,0.216250651655672
104.0,246.9,15492.0,211.6,210.488,1.11199999999999,1.3331656066276,0.180686118491007
105.0,249.4,15642.0,209.32,207.974,1.346,1.615055721792,0.218891147556286
106.0,251.9,15792.0,208.64,207.302,1.33799999999999,1.60678624420328,0.217770371712666
107.0,254.4,15942.0,208.509,207.169,1.33999999999998,1.61050768434707,0.21827474459135
108.0,256.9,16092.0,210.312,208.592,1.72,2.06889760764398,0.280401081772688
109.0,259.4,16242.0,207.792,206.559,1.233,1.48430371773694,0.201170114265162
110.0,261.9,16392.0,207.517,206.387,1.13,1.36139438211884,0.184512010674176
111.0,264.4,16542.0,208.014,206.166,1.84800000000001,2.22817868590454,0.301988707223635
112.0,266.9,16692.0,209.436,207.843,1.59300000000002,1.92222025683126,0.260521660148591
113.0,269.4,16842.0,212.404,210.829,1.57499999999999,1.90197193430469,0.257777371828302
114.0,271.9,16992.0,209.241,208.633,0.608000000000004,0.734784867082545,0.0995865966681522
115.0,274.4,17142.0,210.781,209.338,1.44300000000001,1.74523131539702,0.236534058994913
116.0,276.9,17292.0,207.56,206.614,0.945999999999998,1.14499836051796,0.155183503393773
117.0,279.4,17442.0,207.306,206.159,1.14700000000002,1.38931679259895,0.188296380705538
118.0,281.9,17592.0,209.034,208.267,0.766999999999996,0.929724982263264,0.126007149805054
119.0,284.4,17742.0,208.668,207.772,0.896000000000015,1.08689002046215,0.147307984880211
120.0,286.9,17892.0,206.565,205.377,1.18799999999999,1.44214764275722,0.195456632368364
121.0,289.4,18042.0,209.451,207.671,1.78,2.162351380183,0.293067024649156
122.0,291.9,18192.0,207.654,206.169,1.48499999999999,1.80527364207479,0.244671693883364
123.0,294.4,18342.0,206.717,206.137,0.580000000000013,0.705589799424137,0.0956297413247084
124.0,296.9,18492.0,208.632,207.456,1.17600000000002,1.43164972354448,0.194033832181086
125.0,299.4,18642.0,206.502,205.345,1.15700000000001,1.40950120167867,0.19103200673168
126.0,301.9,18792.0,203.855,202.86,0.994999999999976,1.21298476638513,0.164397812347759
127.0,304.4,18942.0,203.48,202.468,1.012,1.23455526011438,0.167321296696962
128.0,306.9,19092.0,206.233,204.481,1.75200000000001,2.13874745748215,0.289867946340522
129.0,309.4,19242.0,203.831,201.867,1.964,2.39916403411834,0.325162631553814
130.0,311.9,19392.0,205.515,204.046,1.46899999999999,1.79568859643466,0.243372616946737
131.0,314.4,19542.0,205.569,204.363,1.20599999999999,1.47518016893658,0.199933584751196
132.0,316.9,19692.0,203.604,202.351,1.25300000000001,1.533681427961,0.207862356216203
133.0,319.4,19842.0,204.167,203.333,0.834000000000003,1.02149044998067,0.13844427396348
134.0,321.9,19992.0,207.538,206.162,1.376,1.68643167242252,0.228564847064375
135.0,324.4,20142.0,207.438,206.389,1.04899999999998,1.28648813084903,0.174359843737548
136.0,326.9,20292.0,207.538,206.454,1.084,1.33026302541716,0.180292726904911
137.0,329.4,20442.0,204.833,203.921,0.912000000000006,1.11989942035433,0.15178180291946
138.0,331.9,20592.0,203.874,202.43,1.44399999999999,1.77429307572637,0.240472846977682
139.0,334.4,20742.0,205.278,203.994,1.28399999999999,1.57868414589317,0.213961648295361
140.0,336.9,20892.0,203.462,202.184,1.27799999999999,1.57228492294865,0.213094351127287
141.0,339.4,21042.0,205.324,203.756,1.56800000000001,1.93025539674796,0.261610675823661
142.0,341.9,21192.0,202.478,201.39,1.08800000000002,1.34018303855874,0.181637202535711
143.0,344.4,21342.0,204.949,203.564,1.38500000000002,1.70706366463781,0.231361134766056
144.0,346.9,21492.0,204.007,202.87,1.137,1.40224333667911,0.190048336399366
145.0,349.4,21642.0,202.998,202.145,0.85299999999998,1.05262386520933,0.142663836728277
146.0,351.9,21792.0,202.825,201.75,1.07499999999999,1.32737069101593,0.179900724085653
147.0,354.4,21942.0,204.892,203.374,1.518,1.87548441688677,0.254187475204121
148.0,356.9,22092.0,203.622,202.18,1.44200000000001,1.78263840611784,0.241603903275911
149.0,359.4,22242.0,204.044,202.22,1.82400000000001,2.2561997922529,0.305786453667693
150.0,361.9,22392.0,202.724,202.141,0.582999999999998,0.721563307207047,0.0977946570003241
151.0,364.4,22542.0,201.988,200.841,1.14699999999999,1.4204336117499,0.192513694176737
152.0,366.9,22692.0,204.31,203.399,0.911000000000001,1.12882348862224,0.152991296510099
153.0,369.4,22842.0,203.077,202.288,0.788999999999987,0.978212778656805,0.1325787802769
154.0,371.9,22992.0,204.598,204.185,0.413000000000011,0.512334505081009,0.069437534715788
155.0,374.4,23142.0,203.717,202.967,0.75,0.930916287568331,0.126168609364496
156.0,376.9,23292.0,200.786,199.454,1.33199999999999,1.65423807965738,0.224201596701407
157.0,379.4,23442.0,200.617,199.33,1.28699999999998,1.59924646056685,0.216748492485691
158.0,381.9,23592.0,200.772,199.023,1.749,2.17454494274473,0.294719638157113
159.0,384.4,23742.0,201.825,200.922,0.902999999999992,1.1233284191634,0.152246540745009
160.0,386.9,23892.0,202.043,201.305,0.738,0.918574723300819,0.124495936942917
161.0,389.4,24042.0,202.218,201.141,1.077,1.34125608375982,0.181782634109542
162.0,391.9,24192.0,200.399,199.151,1.24799999999999,1.55506026256266,0.210759864689893
163.0,394.4,24342.0,199.644,198.569,1.07500000000002,1.34022133454234,0.1816423928531
164.0,396.9,24492.0,201.449,200.309,1.14000000000001,1.42202473084537,0.192729341154119
165.0,399.4,24642.0,199.287,198.413,0.873999999999995,1.09080419522283,0.147838479397237
166.0,401.9,24792.0,202.162,200.988,1.17400000000001,1.46600478769558,0.198690030301644
167.0,404.4,24942.0,200.092,198.667,1.42500000000001,1.78038103189724,0.241297957650047
168.0,406.9,25092.0,200.104,198.438,1.66600000000003,2.08258527486173,0.282256193732131
169.0,409.4,25242.0,201.181,200.175,1.006,1.2582136700389,0.170527759748274
170.0,411.9,25392.0,201.29,200.525,0.764999999999986,0.957294176958325,0.129743647922474
171.0,414.4,25542.0,201.261,200.131,1.13,1.41478012554068,0.191747467929969
172.0,416.9,25692.0,199.028,198.173,0.85499999999999,1.07103121311904,0.145158614743091
173.0,419.4,25842.0,201.266,200.01,1.256,1.57416466375455,0.213349115477866
174.0,421.9,25992.0,200.193,198.663,1.53,1.91856040644455,0.260025634630573
175.0,424.4,26142.0,199.195,198.063,1.13200000000001,1.42021154716509,0.1924835973998
176.0,426.9,26292.0,200.823,199.739,1.084,1.36068475091939,0.184415833195285
177.0,429.4,26442.0,200.071,198.797,1.274,1.59999402857442,0.21684981160233
178.0,431.9,26592.0,197.596,196.796,0.800000000000011,1.00521442502275,0.136238357639589
179.0,434.4,26742.0,198.876,198.329,0.546999999999997,0.68766188500209,0.0931999417158264
180.0,436.9,26892.0,197.308,196.712,0.596000000000004,0.749638557423948,0.101599741651576
181.0,439.4,27042.0,199.68,198.157,1.523,1.91656138471903,0.259754703941566
182.0,441.9,27192.0,199.654,199.066,0.587999999999994,0.740314901069012,0.100336091232947
183.0,444.4,27342.0,200.374,199.445,0.929000000000002,1.17022774429752,0.158602883105031
184.0,446.9,27492.0,200.915,199.693,1.22199999999998,1.54007044475345,0.208728270127771
185.0,449.4,27642.0,200.674,199.407,1.267,1.59757004177638,0.216521284700921
186.0,451.9,27792.0,198.546,197.122,1.42399999999998,1.79641394716839,0.243470924919858
187.0,454.4,27942.0,197.296,196.692,0.603999999999985,0.762334793722017,0.103320483354436
188.0,456.9,28092.0,197.071,196.021,1.05000000000001,1.32589682202206,0.179700968206606
189.0,459.4,28242.0,197.031,196.05,0.980999999999995,1.23936815446052,0.167973596151575
190.0,461.9,28392.0,196.836,196.101,0.735000000000014,0.929028079946068,0.125912697492426
191.0,464.4,28542.0,196.969,195.875,1.09399999999999,1.38346537859523,0.18750332898056
192.0,466.9,28692.0,198.928,197.744,1.184,1.49799876831379,0.203026226903357
193.0,469.4,28842.0,199.438,198.46,0.97799999999998,1.23796028252791,0.167782784962349
194.0,471.9,28992.0,198.883,197.692,1.191,1.50829765611845,0.20442205203787
195.0,474.4,29142.0,198.314,197.399,0.914999999999992,1.1593195906905,0.157124483178302
196.0,476.9,29292.0,197.26,196.817,0.442999999999984,0.561554554154031,0.0761084085927688
197.0,479.4,29442.0,194.528,194.398,0.129999999999995,0.164868277056501,0.0223448676560108
198.0,481.9,29592.0,195.922,194.249,1.673,2.12272919342366,0.287696964773564
199.0,484.4,29742.0,197.698,196.475,1.22300000000001,1.55249214069444,0.210411802926318
200.0,486.9,29892.0,195.007,194.235,0.771999999999991,0.980446642395908,0.132881539488696
201.0,489.4,30042.0,197.141,196.176,0.965000000000003,1.2261316599184,0.166179632363916
202.0,491.9,30192.0,196.905,196.222,0.682999999999993,0.868226541067942,0.117672165330815
203.0,494.4,30342.0,195.024,193.95,1.07400000000001,1.36589916160696,0.185122550817366
204.0,496.9,30492.0,196.955,195.825,1.13000000000002,1.43778601947317,0.194865494420012
205.0,499.4,30642.0,197.09,195.579,1.511,1.9234513067165,0.26068850635609
206.0,501.9,30792.0,196.621,195.261,1.36000000000001,1.73203248541165,0.234745199946327
207.0,504.4,30942.0,194.486,193.079,1.40699999999998,1.79271436706037,0.24296951476763
208.0,506.9,31092.0,194.904,193.829,1.07499999999999,1.37032896086216,0.185722928766765
209.0,509.4,31242.0,196.997,196.457,0.54000000000002,0.688666577054426,0.0933361092754401
210.0,511.9,31392.0,195.536,194.311,1.22499999999999,1.56296668868778,0.211831435573947
211.0,514.4,31542.0,195.488,193.941,1.547,1.97470332223361,0.267634775973751
212.0,516.9,31692.0,NA,125.774,-125.774,-160.62008732964,-21.7691035434774
213.0,519.4,31842.0,NA,127.601,-127.601,-163.027190745327,-22.0953422124206
214.0,521.9,31992.0,NA,125.723,-125.723,-160.700502432529,-21.780002334098
215.0,524.4,32142.0,NA,127.734,-127.734,-163.34472034869,-22.1383775197015
216.0,526.9,32292.0,NA,125.799,-125.799,-160.942756548214,-21.812835431227
217.0,529.4,32442.0,NA,125.891,-125.891,-161.132877372479,-21.8386028179719
218.0,531.9,32592.0,NA,126.08,-126.08,-161.447191746898,-21.8812023600072
219.0,534.4,32742.0,NA,127.74,-127.74,-163.646082898709,-22.17922167976
220.0,536.9,32892.0,NA,127.785,-127.785,-163.776877440471,-22.1969484782562
221.0,539.4,33042.0,NA,128.009,-128.009,-164.137127294639,-22.2457737311077
222.0,541.9,33192.0,NA,127.692,-127.692,-163.803524169873,-22.2005599531414
223.0,544.4,33342.0,NA,125.766,-125.766,-161.404504594298,-21.8754169002906
224.0,546.9,33492.0,NA,125.564,-125.564,-161.216699320097,-21.8499633438391
225.0,549.4,33642.0,NA,127.567,-127.567,-163.860902442176,-22.2083365243765
226.0,551.9,33792.0,NA,125.59,-125.59,-161.39267543792,-21.8738136753497
227.0,554.4,33942.0,NA,125.809,-125.809,-161.745379055524,-21.9216161743984
228.0,556.9,34092.0,NA,125.769,-125.769,-161.765106464898,-21.9242898625059
229.0,559.4,34242.0,NA,125.835,-125.835,-161.921092663451,-21.9454309275127
230.0,561.9,34392.0,NA,127.857,-127.857,-164.59509357446,-22.3078426511948
231.0,564.4,34542.0,NA,128.092,-128.092,-164.96980508586,-22.3586279161403
232.0,566.9,34692.0,NA,127.529,-127.529,-164.316498350037,-22.2700841840691
233.0,569.4,34842.0,NA,125.767,-125.767,-162.116929779543,-21.9719730526525
234.0,571.9,34992.0,NA,128.005,-128.005,-165.073648244681,-22.3727019495581
235.0,574.4,35142.0,NA,127.847,-127.847,-164.941600772038,-22.3548053392873
236.0,576.9,35292.0,NA,127.68,-127.68,-164.797679584261,-22.3352994649542
237.0,579.4,35442.0,NA,127.554,-127.554,-164.706435301509,-22.3229329778478
238.0,581.9,35592.0,NA,127.937,-127.937,-165.27251416578,-22.399654573602
239.0,584.4,35742.0,NA,127.556,-127.556,-164.851563992638,-22.3426025070882
240.0,586.9,35892.0,NA,127.775,-127.775,-165.205882547058,-22.390623881169
