"Frame","Time (aligned)","Time [ s]","Intensity Ch3-T2","background","Intensity (bg-subst)","bleach-Corrected","Normalized"
1.0,-11.3,0.0,270.354,254.919,15.435,15.4862615546483,0.99406322061477
2.0,-8.8,150.0,264.011,249.259,14.752,14.8494317577503,0.953185112192419
3.0,-6.3,300.0,264.02,248.871,15.149,15.2982297674666,0.98199345908555
4.0,-3.8,450.0,263.492,247.649,15.843,16.0499067407356,1.03024360843715
5.0,-0.333333333333333,658.0,256.627,240.676,15.951,16.2099159366907,1.04051459967011
6.0,1.9,792.0,280.922,265.055,15.867,16.1743034923847,1.03822863665988
7.0,4.4,942.0,276.781,261.199,15.582,15.9320744489946,1.02267995293468
8.0,6.9,1092.0,273.168,257.983,15.185,15.5726672922477,0.999609605421367
9.0,9.4,1242.0,268.179,253.666,14.513,14.9274450912964,0.958192788533283
10.0,11.9,1392.0,268.835,254.439,14.396,14.8501716517521,0.95323260599276
11.0,14.4,1542.0,266.521,251.635,14.886,15.399639010722,0.988502919008776
12.0,16.9,1692.0,267.36,252.899,14.461,15.002220784445,0.962992640717925
13.0,19.4,1842.0,265.569,251.041,14.528,15.1136665177063,0.970146342993878
14.0,21.9,1992.0,261.723,247.428,14.295,14.9120476418294,0.957204426161103
15.0,24.4,2142.0,262.053,248.368,13.685,14.314284540495,0.918834009157599
16.0,26.9,2292.0,258.935,244.865,14.07,14.756165743112,0.947198366162197
17.0,29.4,2442.0,255.869,243.253,12.616,13.2659638290366,0.851542296500405
18.0,31.9,2592.0,255.116,241.969,13.147,13.8600521701067,0.889676830620849
19.0,34.4,2742.0,257.382,244.067,13.315,14.0729151796224,0.903340508458284
20.0,36.9,2892.0,254.577,242.41,12.167,12.8918420871818,0.827527419682154
21.0,39.4,3042.0,252.764,241.322,11.442,12.1536325305668,0.780141743885075
22.0,41.9,3192.0,252.452,243.132,9.31999999999999,9.92377984633728,0.637007486920625
23.0,44.4,3342.0,251.469,243.757,7.71199999999999,8.23132755331372,0.528368964240187
24.0,46.9,3492.0,247.619,241.938,5.68100000000001,6.07790837514445,0.390140974480965
25.0,49.4,3642.0,246.208,241.653,4.55500000000001,4.88460348055466,0.313542726252667
26.0,51.9,3792.0,247.209,243.573,3.636,3.90806422400776,0.250858665610001
27.0,54.4,3942.0,244.26,241.005,3.255,3.5064789480062,0.225080904372734
28.0,56.9,4092.0,245.868,242.623,3.245,3.50350819841163,0.224890211938721
29.0,59.4,4242.0,243.049,240.322,2.727,2.95071838537351,0.189406630576454
30.0,61.9,4392.0,244.174,241.462,2.71200000000002,2.94084891859221,0.188773109445499
31.0,64.4,4542.0,242.453,239.685,2.768,3.00798699538648,0.193082702991267
32.0,66.9,4692.0,241.164,238.658,2.506,2.72900560685262,0.175174886014334
33.0,69.4,4842.0,238.477,235.983,2.494,2.7215741451994,0.174697860446943
34.0,71.9,4992.0,238.05,235.111,2.93900000000002,3.21374006136888,0.206289993511324
35.0,74.4,5142.0,236.474,233.883,2.59099999999998,2.83892095664201,0.182230352966192
36.0,76.9,5292.0,235.918,233.661,2.257,2.47787656699146,0.159054911463127
37.0,79.4,5442.0,235.581,232.862,2.71899999999999,2.99093680663176,0.191988251274447
38.0,81.9,5592.0,234.778,232.406,2.37199999999999,2.61427056998954,0.167810043320764
39.0,84.4,5742.0,234.225,231.554,2.67099999999999,2.94941343864831,0.18932286603846
40.0,86.9,5892.0,235.857,232.999,2.858,3.16182771933865,0.202957739969943
41.0,89.4,6042.0,235.169,232.669,2.5,2.77088617178909,0.177863199724845
42.0,91.9,6192.0,232.649,230.102,2.547,2.82812758598423,0.181537526439951
43.0,94.4,6342.0,233.692,231.712,1.98000000000002,2.2024978122104,0.141378347568054
44.0,96.9,6492.0,232.365,229.527,2.83800000000002,3.16251053197463,0.203001569717078
45.0,99.4,6642.0,234.282,231.154,3.12800000000001,3.49176383261304,0.224136341028778
46.0,101.9,6792.0,231.965,229.103,2.86199999999999,3.20033684023651,0.205429640667713
47.0,104.4,6942.0,233.135,230.867,2.268,2.54042658111424,0.163069997238927
48.0,106.9,7092.0,232.861,229.966,2.89499999999998,3.24817538631993,0.208500397223218
49.0,109.4,7242.0,230.934,227.769,3.16499999999999,3.55698360821572,0.228322798809733
50.0,111.9,7392.0,229.617,227.19,2.42699999999999,2.73202886906312,0.175368949233474
51.0,114.4,7542.0,NA,226.429,-226.429,-255.296696288545,-16.3874964418852
52.0,116.9,7692.0,NA,228.112,-228.112,-257.602078281609,-16.5354789256296
53.0,119.4,7842.0,NA,225.408,-225.408,-254.946614198359,-16.3650246704495
54.0,121.9,7992.0,NA,222.643,-222.643,-252.207751856708,-16.1892170805702
55.0,124.4,8142.0,NA,224.203,-224.203,-254.361393651595,-16.3274593600979
56.0,126.9,8292.0,NA,223.994,-223.994,-254.505772201438,-16.3367270200647
57.0,129.4,8442.0,NA,221.833,-221.833,-252.423693338738,-16.2030783655765
58.0,131.9,8592.0,NA,221.41,-221.41,-252.310485227433,-16.1958115362436
59.0,134.4,8742.0,NA,222.82,-222.82,-254.283322912063,-16.3224479988664
60.0,136.9,8892.0,NA,222.257,-222.257,-254.001618004389,-16.3043653591798
61.0,139.4,9042.0,NA,220.024,-220.024,-251.802622116768,-16.1632118001719
62.0,141.9,9192.0,NA,219.787,-219.787,-251.87979070916,-16.168165252573
63.0,144.4,9342.0,NA,219.396,-219.396,-251.775386486531,-16.1614635449062
64.0,146.9,9492.0,NA,219.068,-219.068,-251.738131255347,-16.1590721313965
65.0,149.4,9642.0,NA,220.878,-220.878,-254.15602158877,-16.3142765261728
66.0,151.9,9792.0,NA,220.077,-220.077,-253.56715779621,-16.276477355852
67.0,154.4,9942.0,NA,220.54,-220.54,-254.430265691348,-16.3318802567362
68.0,156.9,10092.0,NA,220.247,-220.247,-254.417652495968,-16.3310706156503
69.0,159.4,10242.0,NA,220.069,-220.069,-254.533446419228,-16.338503428268
70.0,161.9,10392.0,NA,219.512,-219.512,-254.206141551176,-16.3174937268555
71.0,164.4,10542.0,NA,219.241,-219.241,-254.205234925796,-16.317435530567
72.0,166.9,10692.0,NA,218.643,-218.643,-253.820396159333,-16.2927327278759
73.0,169.4,10842.0,NA,216.565,-216.565,-251.710211532274,-16.1572799642076
74.0,171.9,10992.0,NA,217.925,-217.925,-253.591540962483,-16.278042511439
75.0,174.4,11142.0,NA,215.795,-215.795,-251.407287947503,-16.1378352975129
76.0,176.9,11292.0,NA,217.107,-217.107,-253.228648336573,-16.2547484316395
77.0,179.4,11442.0,NA,216.675,-216.675,-253.013795217624,-16.2409570086659
78.0,181.9,11592.0,NA,214.907,-214.907,-251.23278524201,-16.1266339678171
79.0,184.4,11742.0,NA,216.275,-216.275,-253.114197713567,-16.2474018454732
80.0,186.9,11892.0,NA,213.871,-213.871,-250.576711412897,-16.0845205848533
81.0,189.4,12042.0,NA,215.214,-215.214,-252.424924018805,-16.2031573629373
82.0,191.9,12192.0,NA,213.721,-213.721,-250.943652682093,-16.1080745470892
83.0,194.4,12342.0,NA,214.893,-214.893,-252.588215066397,-16.2136390162462
84.0,196.9,12492.0,NA,213.188,-213.188,-250.847606885221,-16.101909366821
85.0,199.4,12642.0,NA,214.339,-214.339,-252.464018754969,-16.2056668542825
86.0,201.9,12792.0,NA,214.417,-214.417,-252.815314977874,-16.2282165609046
87.0,204.4,12942.0,NA,214.241,-214.241,-252.86429284794,-16.2313604506733
88.0,206.9,13092.0,NA,214.336,-214.336,-253.230360975904,-16.2548583659683
89.0,209.4,13242.0,NA,214.206,-214.206,-253.32793605814,-16.2611217110731
90.0,211.9,13392.0,NA,212.47,-212.47,-251.521451241996,-16.1451634400603
91.0,214.4,13542.0,NA,212.073,-212.073,-251.295086908785,-16.1306331121752
92.0,216.9,13692.0,NA,211.794,-211.794,-251.205306563924,-16.1248701113086
93.0,219.4,13842.0,NA,212.995,-212.995,-252.869542771386,-16.2316974432902
94.0,221.9,13992.0,NA,212.528,-212.528,-252.551952738891,-16.2113113372295
95.0,224.4,14142.0,NA,210.237,-210.237,-250.061465804313,-16.0514469661966
96.0,226.9,14292.0,NA,210.223,-210.223,-250.274477987544,-16.0651202194957
97.0,229.4,14442.0,NA,209.463,-209.463,-249.59628289724,-16.0215868726454
98.0,231.9,14592.0,NA,210.433,-210.433,-250.977578306491,-16.1102522331196
99.0,234.4,14742.0,NA,209.171,-209.171,-249.694361742563,-16.0278825543057
100.0,236.9,14892.0,NA,210.54,-210.54,-251.549839324628,-16.1469856712521
101.0,239.4,15042.0,NA,208.613,-208.613,-249.464647084038,-16.0131371690189
102.0,241.9,15192.0,NA,208.461,-208.461,-249.497842711874,-16.0152679965657
103.0,244.4,15342.0,NA,209.924,-209.924,-251.46329717078,-16.1414305298857
104.0,246.9,15492.0,NA,210.099,-210.099,-251.88557624717,-16.1685366262921
105.0,249.4,15642.0,NA,210.167,-210.167,-252.177872126195,-16.1872991004922
106.0,251.9,15792.0,NA,208.356,-208.356,-250.211924287908,-16.0611048971467
107.0,254.4,15942.0,NA,207.869,-207.869,-249.831807341453,-16.0367051881098
108.0,256.9,16092.0,NA,207.952,-207.952,-250.134532153943,-16.0561370956107
109.0,259.4,16242.0,NA,207.898,-207.898,-250.270700981406,-16.0648777734494
110.0,261.9,16392.0,NA,209.151,-209.151,-251.979642844725,-16.1745747617444
111.0,264.4,16542.0,NA,209.206,-209.206,-252.244778226916,-16.1915938034925
112.0,266.9,16692.0,NA,207.223,-207.223,-250.049120076171,-16.0506544938342
113.0,269.4,16842.0,NA,206.568,-206.568,-249.451770492352,-16.0123106205225
114.0,271.9,16992.0,NA,206.191,-206.191,-249.187543632592,-15.9953498968347
115.0,274.4,17142.0,NA,206.096,-206.096,-249.262088134484,-16.0001349088512
116.0,276.9,17292.0,NA,207.271,-207.271,-250.872045647904,-16.1034780911419
117.0,279.4,17442.0,NA,207.225,-207.225,-251.003637616664,-16.1119249803934
118.0,281.9,17592.0,NA,207.173,-207.173,-251.126354303036,-16.1198021652161
119.0,284.4,17742.0,NA,206.81,-206.81,-250.870228941711,-16.1033614767606
120.0,286.9,17892.0,NA,206.735,-206.735,-250.96161020658,-16.1092272406921
121.0,289.4,18042.0,NA,204.73,-204.73,-248.70685284543,-15.964494352369
122.0,291.9,18192.0,NA,206.68,-206.68,-251.255189457254,-16.1280720945259
123.0,294.4,18342.0,NA,204.679,-204.679,-248.998990614362,-15.9832466774814
124.0,296.9,18492.0,NA,204.421,-204.421,-248.859921884934,-15.9743198549184
125.0,299.4,18642.0,NA,204.631,-204.631,-249.289231115562,-16.0018772169668
126.0,301.9,18792.0,NA,204.444,-204.444,-249.233625707385,-15.9983079054877
127.0,304.4,18942.0,NA,206.32,-206.32,-251.693123781421,-16.1561831013795
128.0,306.9,19092.0,NA,204.695,-204.695,-249.880656854626,-16.0398408386488
129.0,309.4,19242.0,NA,205.938,-205.938,-251.567740762863,-16.1481347646781
130.0,311.9,19392.0,NA,205.796,-205.796,-251.562648326664,-16.1478078811684
131.0,314.4,19542.0,NA,205.822,-205.822,-251.761635763572,-16.1605808859183
132.0,316.9,19692.0,NA,205.561,-205.561,-251.608210704778,-16.1507325304885
133.0,319.4,19842.0,NA,205.269,-205.269,-251.415255608012,-16.138346741688
134.0,321.9,19992.0,NA,204.885,-204.885,-251.107960177534,-16.1186214461916
135.0,324.4,20142.0,NA,203.119,-203.119,-249.104082602412,-15.9899925328147
136.0,326.9,20292.0,NA,202.795,-202.795,-248.865950405417,-15.9747068256838
137.0,329.4,20442.0,NA,203.96,-203.96,-250.454699315207,-16.0766886275823
138.0,331.9,20592.0,NA,202.317,-202.317,-248.593941967961,-15.9572466024777
139.0,334.4,20742.0,NA,203.864,-203.864,-250.651763799351,-16.0893381979828
140.0,336.9,20892.0,NA,203.517,-203.517,-250.380837765057,-16.0719474542421
141.0,339.4,21042.0,NA,201.575,-201.575,-248.144918111905,-15.9284237585068
142.0,341.9,21192.0,NA,203.324,-203.324,-250.451632474183,-16.0764917670389
143.0,344.4,21342.0,NA,203.267,-203.267,-250.534086584786,-16.0817844968852
144.0,346.9,21492.0,NA,203.441,-203.441,-250.900428018764,-16.105299955695
145.0,349.4,21642.0,NA,203.245,-203.245,-250.809539841119,-16.0994658430353
146.0,351.9,21792.0,NA,203.285,-203.285,-251.008884579698,-16.1122617829816
147.0,354.4,21942.0,NA,201.494,-201.494,-248.945228653612,-15.9797956969035
148.0,356.9,22092.0,NA,203.321,-203.321,-251.350779036257,-16.1342079901664
149.0,359.4,22242.0,NA,201.198,-201.198,-248.87219616321,-15.9751077409134
150.0,361.9,22392.0,NA,203.125,-203.125,-251.402310079643,-16.1375157681456
151.0,364.4,22542.0,NA,201.133,-201.133,-249.081145276455,-15.9885201857261
152.0,366.9,22692.0,NA,202.691,-202.691,-251.15517204427,-16.121651976196
153.0,369.4,22842.0,NA,200.782,-200.782,-248.932215620119,-15.9789603902067
154.0,371.9,22992.0,NA,200.38,-200.38,-248.57527391799,-15.9560483002399
155.0,374.4,23142.0,NA,200.476,-200.476,-248.835164888732,-15.972730703186
156.0,376.9,23292.0,NA,201.809,-201.809,-250.630730193376,-16.0879880506912
157.0,379.4,23442.0,NA,199.701,-199.701,-248.151606388241,-15.9288530790042
158.0,381.9,23592.0,NA,199.54,-199.54,-248.089592838928,-15.9248724289077
159.0,384.4,23742.0,NA,201.171,-201.171,-250.255926258607,-16.0639293839057
160.0,386.9,23892.0,NA,200.848,-200.848,-249.991729031874,-16.046970562362
161.0,389.4,24042.0,NA,198.82,-198.82,-247.603096168178,-15.8936442047403
162.0,391.9,24192.0,NA,200.261,-200.261,-249.533592340595,-16.0175627654443
163.0,394.4,24342.0,NA,200.461,-200.461,-249.918240877849,-16.0422533573214
164.0,396.9,24492.0,NA,200.212,-200.212,-249.742469659658,-16.030970601788
165.0,399.4,24642.0,NA,200.183,-200.183,-249.840338915666,-16.037252829909
166.0,401.9,24792.0,NA,198.488,-198.488,-247.85720468494,-15.9099554319313
167.0,404.4,24942.0,NA,200.263,-200.263,-250.20662918655,-16.0607650045593
168.0,406.9,25092.0,NA,198.643,-198.643,-248.31391761966,-15.9392718379072
169.0,409.4,25242.0,NA,198.809,-198.809,-248.652287799963,-15.9609918217784
170.0,411.9,25392.0,NA,198.393,-198.393,-248.262043986008,-15.9359420690569
171.0,414.4,25542.0,NA,198.354,-198.354,-248.342740726988,-15.9411219933367
172.0,416.9,25692.0,NA,198.296,-198.296,-248.399070686148,-15.9447378137478
173.0,419.4,25842.0,NA,198.027,-198.027,-248.190370915066,-15.9313413742099
174.0,421.9,25992.0,NA,197.695,-197.695,-247.901829772585,-15.9128199165708
175.0,424.4,26142.0,NA,197.29,-197.29,-247.520791643285,-15.8883610768015
176.0,426.9,26292.0,NA,197.081,-197.081,-247.384789110648,-15.8796310734287
177.0,429.4,26442.0,NA,197.099,-197.099,-247.533142102033,-15.8891538528215
178.0,431.9,26592.0,NA,198.581,-198.581,-249.520607169301,-16.0167292472222
179.0,434.4,26742.0,NA,196.607,-196.607,-247.164790172955,-15.8655093403195
180.0,436.9,26892.0,NA,196.868,-196.868,-247.617187119022,-15.8945487029581
181.0,439.4,27042.0,NA,198.497,-198.497,-249.790994867087,-16.0340854351394
182.0,441.9,27192.0,NA,198.133,-198.133,-249.457163764469,-16.0126568146916
183.0,444.4,27342.0,NA,198.647,-198.647,-250.228450722786,-16.0621657290992
184.0,446.9,27492.0,NA,199.098,-199.098,-250.920577258206,-16.1065933354937
185.0,449.4,27642.0,NA,199.443,-199.443,-251.479212187852,-16.1424521149255
186.0,451.9,27792.0,NA,197.584,-197.584,-249.257481276211,-15.9998391945915
187.0,454.4,27942.0,NA,198.026,-198.026,-249.937267982781,-16.0434747072993
188.0,456.9,28092.0,NA,198.114,-198.114,-250.170212379119,-16.0584274094754
189.0,459.4,28242.0,NA,199.889,-199.889,-252.534211036658,-16.2101724972584
190.0,461.9,28392.0,NA,197.885,-197.885,-250.123430748468,-16.0554244963277
191.0,464.4,28542.0,NA,198.1,-198.1,-250.51598857378,-16.0806227854519
192.0,466.9,28692.0,NA,197.451,-197.451,-249.81533344791,-16.0356477287861
193.0,469.4,28842.0,NA,199.329,-199.329,-252.312254760747,-16.1959251225975
194.0,471.9,28992.0,NA,197.405,-197.405,-249.996220660001,-16.047258879998
195.0,474.4,29142.0,NA,198.487,-198.487,-251.486194095505,-16.142900283619
196.0,476.9,29292.0,NA,198.278,-198.278,-251.340663405321,-16.1335586677569
197.0,479.4,29442.0,NA,196.178,-196.178,-248.796375818396,-15.9702408325322
198.0,481.9,29592.0,NA,197.695,-197.695,-250.838582124262,-16.1013300673618
199.0,484.4,29742.0,NA,195.975,-195.975,-248.773219356165,-15.9687544190849
200.0,486.9,29892.0,NA,195.66,-195.66,-248.489883485992,-15.9505670879058
201.0,489.4,30042.0,NA,197.136,-197.136,-250.481544984118,-16.0784118512281
202.0,491.9,30192.0,NA,196.699,-196.699,-250.042887849963,-16.0502544471972
203.0,494.4,30342.0,NA,194.814,-194.814,-247.761898760983,-15.9038377441099
204.0,496.9,30492.0,NA,195.042,-195.042,-248.166956469098,-15.9298384007851
205.0,499.4,30642.0,NA,196.972,-196.972,-250.738617330618,-16.0949133266676
206.0,501.9,30792.0,NA,196.922,-196.922,-250.790662567816,-16.0982541107506
207.0,504.4,30942.0,NA,195.243,-195.243,-248.766830965155,-15.9683443482282
208.0,506.9,31092.0,NA,195.226,-195.226,-248.85938764026,-15.9742855617496
209.0,509.4,31242.0,NA,196.915,-196.915,-251.127368556791,-16.1198672701706
210.0,511.9,31392.0,NA,194.778,-194.778,-248.515531174881,-15.952213413207
211.0,514.4,31542.0,NA,194.558,-194.558,-248.347982525616,-15.9414584644216
212.0,516.9,31692.0,NA,125.774,-125.774,-160.62008732964,-10.3102043538973
213.0,519.4,31842.0,NA,127.601,-127.601,-163.027190745327,-10.4647163363605
214.0,521.9,31992.0,NA,125.723,-125.723,-160.700502432529,-10.3153661998265
215.0,524.4,32142.0,NA,127.734,-127.734,-163.34472034869,-10.4850985634748
216.0,526.9,32292.0,NA,125.799,-125.799,-160.942756548214,-10.3309164929424
217.0,529.4,32442.0,NA,125.891,-125.891,-161.132877372479,-10.3431203497744
218.0,531.9,32592.0,NA,126.08,-126.08,-161.447191746898,-10.3632961913239
219.0,534.4,32742.0,NA,127.74,-127.74,-163.646082898709,-10.5044430273396
220.0,536.9,32892.0,NA,127.785,-127.785,-163.776877440471,-10.5128387297474
221.0,539.4,33042.0,NA,128.009,-128.009,-164.137127294639,-10.5359631700132
222.0,541.9,33192.0,NA,127.692,-127.692,-163.803524169873,-10.5145491834651
223.0,544.4,33342.0,NA,125.766,-125.766,-161.404504594298,-10.3605561027465
224.0,546.9,33492.0,NA,125.564,-125.564,-161.216699320097,-10.3485008810868
225.0,549.4,33642.0,NA,127.567,-127.567,-163.860902442176,-10.5182322951029
226.0,551.9,33792.0,NA,125.59,-125.59,-161.39267543792,-10.3597967891288
227.0,554.4,33942.0,NA,125.809,-125.809,-161.745379055524,-10.3824368364249
228.0,556.9,34092.0,NA,125.769,-125.769,-161.765106464898,-10.3837031389491
229.0,559.4,34242.0,NA,125.835,-125.835,-161.921092663451,-10.393715893955
230.0,561.9,34392.0,NA,127.857,-127.857,-164.59509357446,-10.5653600282185
231.0,564.4,34542.0,NA,128.092,-128.092,-164.96980508586,-10.5894127623473
232.0,566.9,34692.0,NA,127.529,-127.529,-164.316498350037,-10.5474769991181
233.0,569.4,34842.0,NA,125.767,-125.767,-162.116929779543,-10.4062866795931
234.0,571.9,34992.0,NA,128.005,-128.005,-165.073648244681,-10.596078455325
235.0,574.4,35142.0,NA,127.847,-127.847,-164.941600772038,-10.5876023272766
236.0,576.9,35292.0,NA,127.68,-127.68,-164.797679584261,-10.5783640253836
237.0,579.4,35442.0,NA,127.554,-127.554,-164.706435301509,-10.572507054335
238.0,581.9,35592.0,NA,127.937,-127.937,-165.27251416578,-10.6088436599744
239.0,584.4,35742.0,NA,127.556,-127.556,-164.851563992638,-10.5818228658754
240.0,586.9,35892.0,NA,127.775,-127.775,-165.205882547058,-10.6045665759753
NA,NA,NA,NA,127.916,NA,NA,NA
NA,NA,NA,NA,125.59,NA,NA,NA
NA,NA,NA,NA,125.055,NA,NA,NA
NA,NA,NA,NA,127.586,NA,NA,NA
NA,NA,NA,NA,127.512,NA,NA,NA
NA,NA,NA,NA,125.58,NA,NA,NA
NA,NA,NA,NA,127.46,NA,NA,NA
NA,NA,NA,NA,125.391,NA,NA,NA
NA,NA,NA,NA,127.211,NA,NA,NA
NA,NA,NA,NA,125.363,NA,NA,NA
NA,NA,NA,NA,125.358,NA,NA,NA
NA,NA,NA,NA,127.351,NA,NA,NA
NA,NA,NA,NA,124.991,NA,NA,NA
NA,NA,NA,NA,125.114,NA,NA,NA
NA,NA,NA,NA,125.035,NA,NA,NA
NA,NA,NA,NA,127.477,NA,NA,NA
NA,NA,NA,NA,127.361,NA,NA,NA
NA,NA,NA,NA,125.036,NA,NA,NA
NA,NA,NA,NA,127.277,NA,NA,NA
NA,NA,NA,NA,127.421,NA,NA,NA
NA,NA,NA,NA,125.364,NA,NA,NA
NA,NA,NA,NA,125.39,NA,NA,NA
NA,NA,NA,NA,127.021,NA,NA,NA
NA,NA,NA,NA,125.616,NA,NA,NA
NA,NA,NA,NA,127.181,NA,NA,NA
NA,NA,NA,NA,127.318,NA,NA,NA
NA,NA,NA,NA,125.309,NA,NA,NA
NA,NA,NA,NA,125.431,NA,NA,NA
NA,NA,NA,NA,127.356,NA,NA,NA
NA,NA,NA,NA,125.216,NA,NA,NA
NA,NA,NA,NA,125.467,NA,NA,NA
NA,NA,NA,NA,124.989,NA,NA,NA
NA,NA,NA,NA,125.327,NA,NA,NA
NA,NA,NA,NA,126.959,NA,NA,NA
NA,NA,NA,NA,127.012,NA,NA,NA
NA,NA,NA,NA,125.043,NA,NA,NA
NA,NA,NA,NA,124.811,NA,NA,NA
NA,NA,NA,NA,124.883,NA,NA,NA
NA,NA,NA,NA,127.159,NA,NA,NA
NA,NA,NA,NA,126.82,NA,NA,NA
NA,NA,NA,NA,126.608,NA,NA,NA
NA,NA,NA,NA,124.834,NA,NA,NA
NA,NA,NA,NA,126.698,NA,NA,NA
NA,NA,NA,NA,126.796,NA,NA,NA
NA,NA,NA,NA,125.122,NA,NA,NA
NA,NA,NA,NA,124.823,NA,NA,NA
NA,NA,NA,NA,127.013,NA,NA,NA
NA,NA,NA,NA,124.966,NA,NA,NA
NA,NA,NA,NA,125.037,NA,NA,NA
NA,NA,NA,NA,127.014,NA,NA,NA
NA,NA,NA,NA,126.885,NA,NA,NA
NA,NA,NA,NA,125.103,NA,NA,NA
NA,NA,NA,NA,126.866,NA,NA,NA
NA,NA,NA,NA,125.06,NA,NA,NA
NA,NA,NA,NA,124.931,NA,NA,NA
NA,NA,NA,NA,126.782,NA,NA,NA
NA,NA,NA,NA,126.686,NA,NA,NA
NA,NA,NA,NA,124.711,NA,NA,NA
NA,NA,NA,NA,126.573,NA,NA,NA
