"Frame","Time (aligned)","Time [ s]","Intensity Ch3-T2","background","Intensity (bg-subst)","bleach-Corrected","Normalized"
1.0,-122.333333333333,0.0,251.177,248.991,2.18599999999998,2.19325997787242,0.308370500572955
2.0,-120.333333333333,120.0,247.193,244.568,2.625,2.64233719930142,0.371510378638075
3.0,-118.333333333333,240.0,243.511,240.861,2.65000000000001,2.67610461969679,0.376258049427417
4.0,-116.333333333333,360.0,244.144,241.452,2.69200000000001,2.72715703755983,0.383435976262683
5.0,-113.833333333333,510.0,241.348,238.831,2.51700000000002,2.55785583428317,0.359632370065176
6.0,-112.3,602.0,268.944,265.86,3.084,3.14372924752723,0.442005677168383
7.0,-110.333333333333,720.0,259.946,257.652,2.29400000000004,2.34553836388104,0.329780713039182
8.0,-108.333333333333,840.0,258.389,255.898,2.49100000000001,2.55459428547838,0.359173799057762
9.0,-106.333333333333,960.0,255.775,253.147,2.62800000000001,2.70304731619425,0.380046169800527
10.0,-104.333333333333,1080.0,253.118,250.734,2.38399999999999,2.45921153221567,0.345763064504451
11.0,-102.333333333333,1200.0,250.558,248.408,2.15000000000001,2.22418540058124,0.312718588887776
12.0,-100.333333333333,1320.0,249.981,246.772,3.209,3.3291007881394,0.468068759223073
13.0,-98.3333333333333,1440.0,246.987,243.943,3.04399999999998,3.16671261563171,0.445237119313289
14.0,-96.3333333333333,1560.0,245.62,242.675,2.94499999999999,3.07212174223067,0.431937722399747
15.0,-94.3333333333333,1680.0,244.628,241.156,3.47199999999998,3.6316547990207,0.510607597631242
16.0,-92.3333333333333,1800.0,241.22,237.916,3.304,3.46512946803427,0.487194276733381
17.0,-90.3333333333333,1920.0,241.648,238.212,3.43600000000001,3.61301931805403,0.507987464745909
18.0,-88.3333333333333,2040.0,240.695,237.368,3.327,3.50744607666728,0.493143956168726
19.0,-86.3333333333333,2160.0,237.77,234.363,3.40700000000001,3.60093293405736,0.506288129363522
20.0,-84.3333333333333,2280.0,237.02,233.497,3.523,3.732880716129,0.524839876086405
21.0,-82.3333333333333,2400.0,236.745,233.114,3.631,3.85682920105646,0.542266928386615
22.0,-80.3333333333333,2520.0,237.995,234.397,3.59800000000001,3.83109011664396,0.538648034856139
23.0,-78.3333333333333,2640.0,236.263,232.15,4.113,4.38997020575459,0.617226103383375
24.0,-76.3333333333333,2760.0,236.821,232.779,4.042,4.32439810813833,0.60800672183739
25.0,-74.3333333333333,2880.0,237.132,232.681,4.45099999999999,4.77307795652003,0.671090729587661
26.0,-72.3333333333333,3000.0,237.597,233.683,3.91400000000002,4.20686561407219,0.591481752433661
27.0,-70.3333333333333,3120.0,238.994,235.113,3.881,4.18084325567192,0.587823030819745
28.0,-68.3333333333333,3240.0,240.207,235.028,5.179,5.59157749139408,0.786171072927845
29.0,-66.3333333333333,3360.0,240.696,235.67,5.02600000000001,5.43832438756409,0.76462381595913
30.0,-64.3333333333333,3480.0,237.799,233.352,4.447,4.82225484549391,0.678004958645087
31.0,-62.3333333333333,3600.0,236.589,232.21,4.37899999999999,4.75866150751349,0.669063789032742
32.0,-60.3333333333333,3720.0,234.126,229.623,4.50300000000001,4.90371598070925,0.689458325458429
33.0,-58.3333333333333,3840.0,235.159,231.133,4.02599999999998,4.39336708443173,0.61770370165655
34.0,-56.3333333333333,3960.0,233.922,229.549,4.37299999999999,4.78179152377203,0.672315849784256
35.0,-54.3333333333333,4080.0,233.393,229.471,3.922,4.29727826783097,0.604193695194213
36.0,-52.3333333333333,4200.0,236.016,231.935,4.08099999999999,4.48037849795839,0.629937432912982
37.0,-50.3333333333333,4320.0,234.533,230.412,4.12099999999998,4.53315578526276,0.63735787493496
38.0,-48.3333333333333,4440.0,233.595,229.102,4.493,4.9519045830367,0.696233602248025
39.0,-46.3333333333333,4560.0,231.984,227.327,4.65700000000001,5.14242545255907,0.723020675598626
40.0,-44.3333333333333,4680.0,232.74,227.429,5.31100000000001,5.87560077585989,0.826104506852107
41.0,-42.3333333333333,4800.0,234.456,229.321,5.13499999999999,5.69140019685478,0.800206061010436
42.0,-40.3333333333333,4920.0,237.123,232.02,5.10299999999998,5.6662485556645,0.79666976150088
43.0,-38.3333333333333,5040.0,236.364,231.515,4.84900000000002,5.39389489465059,0.758377066778384
44.0,-36.3333333333333,5160.0,233.634,229.088,4.54599999999999,5.06581144410026,0.712248810713616
45.0,-34.3333333333333,5280.0,233.222,228.388,4.834,5.39615932444098,0.758695443694491
46.0,-32.3333333333333,5400.0,233.255,228.011,5.244,5.86392955632435,0.824463543242329
47.0,-30.3333333333333,5520.0,234.173,228.751,5.422,6.07327730282249,0.853897659595501
48.0,-28.3333333333333,5640.0,230.882,225.273,5.60900000000001,6.29326968631041,0.884828402919516
49.0,-26.3333333333333,5760.0,229.268,224.236,5.03200000000001,5.65521058974457,0.795117832814643
50.0,-24.3333333333333,5880.0,230.275,225.295,4.98000000000002,5.60589360030262,0.788183905749727
51.0,-22.3333333333333,6000.0,228.457,223.45,5.00700000000001,5.64534824742744,0.793731195814088
52.0,-20.3333333333333,6120.0,230.108,225.135,4.97300000000001,5.61590418432369,0.78959138540866
53.0,-18.3333333333333,6240.0,229.795,224.671,5.124,5.79547509916414,0.814838904378759
54.0,-16.3333333333333,6360.0,230.341,225.259,5.08200000000002,5.75683850350469,0.809406631659545
55.0,-14.3333333333333,6480.0,227.895,222.737,5.15800000000002,5.85182209183164,0.822761243960003
56.0,-12.3333333333333,6600.0,227.406,221.454,5.952,6.76276309250676,0.950838779320454
57.0,-10.3333333333333,6720.0,229.29,223.187,6.10299999999998,6.94460157166117,0.976405115918026
58.0,-8.33333333333333,6840.0,228.986,223.266,5.72,6.51829626259391,0.916466949498966
59.0,-6.33333333333333,6960.0,226.591,221.171,5.42000000000002,6.1853317035427,0.86965241370131
60.0,-4.33333333333333,7080.0,228.136,221.512,6.624,7.57009550952759,1.06434903532165
61.0,-2.33333333333333,7200.0,225.647,219.908,5.739,6.56789826713511,0.923440949446127
62.0,-0.333333333333333,7320.0,225.3,219.542,5.75800000000001,6.59876987675952,0.927781471686726
63.0,1.66666666666667,7440.0,227.212,221.206,6.006,6.89239079672421,0.969064325056456
64.0,3.66666666666667,7560.0,228.253,221.636,6.61699999999999,7.60380892926685,1.06908911366435
65.0,5.66666666666667,7680.0,228.523,221.941,6.58199999999999,7.57366027443786,1.06485023825742
66.0,7.66666666666667,7800.0,228.413,222.43,5.983,6.89346140257604,0.969214851335044
67.0,9.66666666666667,7920.0,225.257,219.655,5.602,6.46285639069072,0.908672150331076
68.0,11.6666666666667,8040.0,228.432,221.674,6.75799999999998,7.80648315558327,1.09758493871609
69.0,13.6666666666667,8160.0,226.37,220.429,5.941,6.87140490108392,0.966113725853052
70.0,15.6666666666667,8280.0,227.819,221.904,5.91499999999999,6.84987302414084,0.963086362139584
71.0,17.6666666666667,8400.0,225.555,219.223,6.33199999999999,7.34181812503198,1.03225342785305
72.0,19.6666666666667,8520.0,226.399,220.529,5.87,6.81442225662512,0.95810201416679
73.0,21.6666666666667,8640.0,226.269,220.612,5.65700000000001,6.57504521339124,0.924445804053791
74.0,23.6666666666667,8760.0,226.057,219.916,6.14099999999999,7.14606242078975,1.00473034116191
75.0,25.6666666666667,8880.0,224.564,218.246,6.31799999999998,7.36064897357364,1.03490102925443
76.0,27.6666666666667,9000.0,223.701,217.916,5.785,6.74749193083168,0.948691666886183
77.0,29.6666666666667,9120.0,225.341,219.12,6.221,7.26433054135845,1.02135873903062
78.0,31.6666666666667,9240.0,225.438,219.117,6.321,7.38944024864125,1.03894905821329
79.0,33.6666666666667,9360.0,225.013,219.241,5.77199999999999,6.7551735022666,0.949771689342469
80.0,35.6666666666667,9480.0,222.433,217.023,5.41,6.33849380581646,0.891186875928073
81.0,37.6666666666667,9600.0,224.298,218.236,6.06200000000001,7.11013172656983,0.999678515899828
82.0,39.6666666666667,9720.0,223.679,218.139,5.53999999999999,6.50487240775961,0.914579566846369
83.0,41.6666666666667,9840.0,222.388,216.738,5.65000000000001,6.64108842598476,0.933731423967699
84.0,43.6666666666667,9960.0,222.106,216.702,5.404,6.35861524854931,0.894015933782764
85.0,45.6666666666667,10080.0,223.569,217.769,5.79999999999998,6.83166063468999,0.960525715564053
86.0,47.6666666666667,10200.0,222.814,217.247,5.56699999999998,6.56395182509699,0.922886083028532
87.0,49.6666666666667,10320.0,222.64,216.839,5.80099999999999,6.84680225918893,0.962654615180757
88.0,51.6666666666667,10440.0,222.098,216.652,5.44600000000003,6.4342553088365,0.904650862377392
89.0,53.6666666666667,10560.0,223.678,217.389,6.28899999999999,7.43760394139119,1.04572083273732
90.0,55.6666666666667,10680.0,222.157,216.577,5.58000000000001,6.60558995590125,0.928740369054161
91.0,57.6666666666667,10800.0,220.017,214.618,5.399,6.39752431578055,0.899486515774857
92.0,59.6666666666667,10920.0,220.547,215.268,5.279,6.26133324528058,0.880338166282617
93.0,61.6666666666667,11040.0,222.139,216.246,5.893,6.99622158056187,0.983662845573828
94.0,63.6666666666667,11160.0,220.435,214.609,5.82599999999999,6.92317095468258,0.973391989270045
95.0,65.6666666666667,11280.0,220.767,214.615,6.15199999999999,7.31735202475363,1.02881351481674
96.0,67.6666666666667,11400.0,220.085,214.313,5.77200000000002,6.8716757297922,0.966151804140709
97.0,69.6666666666667,11520.0,221.684,216.027,5.65700000000001,6.74088584785709,0.947762857199118
98.0,71.6666666666667,11640.0,219.395,213.786,5.60900000000001,6.6896980831006,0.940565900704941
99.0,73.6666666666667,11760.0,220.742,214.997,5.74499999999998,6.85799708473459,0.964228598197896
100.0,75.6666666666667,11880.0,218.707,212.97,5.737,6.85447624301981,0.963733570826322
101.0,77.6666666666667,12000.0,220.294,214.289,6.00500000000002,7.18092930804722,1.00963259606351
102.0,79.6666666666667,12120.0,219.66,214.288,5.37199999999999,6.42951156834221,0.903983896470218
103.0,81.6666666666667,12240.0,218.707,212.757,5.94999999999999,7.12737285001306,1.00210260329497
104.0,83.6666666666667,12360.0,218.082,212.811,5.27099999999999,6.31934884220692,0.888495110213435
105.0,85.6666666666667,12480.0,219.705,214.035,5.67000000000002,6.80339223072856,0.956551201841132
106.0,87.6666666666667,12600.0,218.066,212.078,5.988,7.19090884177077,1.01103571007683
107.0,89.6666666666667,12720.0,218.018,212.239,5.779,6.94561485659841,0.976547582924433
108.0,91.6666666666667,12840.0,219.854,214.664,5.19000000000003,6.24277824632112,0.877729349099526
109.0,93.6666666666667,12960.0,217.921,211.996,5.92499999999998,7.13260302318842,1.00283796122629
110.0,95.6666666666667,13080.0,218.837,213.35,5.487,6.61059378290806,0.929443902905342
111.0,97.6666666666667,13200.0,218.945,213.304,5.64099999999999,6.80149132423559,0.956283935993631
112.0,99.6666666666667,13320.0,216.717,211.259,5.45800000000003,6.58598754663211,0.925984286866119
113.0,101.666666666667,13440.0,218.053,212.718,5.33500000000001,6.4425525520734,0.905817447769071
114.0,103.666666666667,13560.0,217.747,211.982,5.76500000000002,6.96716243212311,0.979577153845218
115.0,105.666666666667,13680.0,217.377,211.649,5.72800000000001,6.92770961510329,0.974030121092075
116.0,107.666666666667,13800.0,216.586,211.279,5.30700000000002,6.42336818104526,0.90312014140466
117.0,109.666666666667,13920.0,218.282,212.279,6.00300000000001,7.27120201043714,1.0223248617798
118.0,111.666666666667,14040.0,218.056,212.209,5.84700000000001,7.08748627287268,0.996494584235207
119.0,113.666666666667,14160.0,215.319,209.225,6.09399999999999,7.39230779541987,1.03935223286858
120.0,115.666666666667,14280.0,215.022,209.279,5.743,6.97159420231886,0.980200256991893
121.0,117.666666666667,14400.0,215.008,209.277,5.73100000000002,6.96204256170158,0.978857304387934
122.0,119.666666666667,14520.0,214.828,209.091,5.737,6.97431305359137,0.980582525184605
123.0,121.666666666667,14640.0,214.738,208.97,5.768,7.0169689018592,0.986579901426099
124.0,123.666666666667,14760.0,216.515,210.776,5.73899999999998,6.98659673760344,0.982309600782525
125.0,125.666666666667,14880.0,216.834,211.478,5.35599999999999,6.52488196732141,0.917392894021701
126.0,127.666666666667,15000.0,215.13,209.802,5.328,6.49525913095492,0.913227948246515
127.0,129.666666666667,15120.0,215.023,209.246,5.77699999999999,7.04745626253037,0.99086639858839
128.0,131.666666666667,15240.0,214.407,208.658,5.74900000000002,7.0180702814297,0.986734754463543
129.0,133.666666666667,15360.0,215.926,209.845,6.08099999999999,7.42836888567901,1.04442239170365
130.0,135.666666666667,15480.0,213.095,207.99,5.10499999999999,6.2402929100061,0.877379912912622
131.0,137.666666666667,15600.0,213.428,207.928,5.5,6.72760441886508,0.945895499499661
132.0,139.666666666667,15720.0,214.975,209.228,5.74699999999999,7.03437124221207,0.989026655782581
133.0,141.666666666667,15840.0,214.39,208.819,5.571,6.82340922882771,0.959365574868535
134.0,143.666666666667,15960.0,214.534,208.671,5.863,7.18571867399216,1.01030597687051
135.0,145.666666666667,16080.0,214.047,208.452,5.595,6.86167882945709,0.964746248396466
136.0,147.666666666667,16200.0,212.459,206.713,5.74600000000001,7.05137577864113,0.991417479243339
137.0,149.666666666667,16320.0,212.372,206.981,5.39100000000002,6.61993177097609,0.930756816141316
138.0,151.666666666667,16440.0,213.102,207.05,6.05199999999999,7.4363031123934,1.04553793727885
139.0,153.666666666667,16560.0,213.087,207.708,5.37899999999999,6.61350624669734,0.929853392854394
140.0,155.666666666667,16680.0,213.726,207.846,5.88,7.23398696943516,1.01709245844485
141.0,157.666666666667,16800.0,215.447,210.069,5.37800000000001,6.62048056359087,0.930833975919472
142.0,159.666666666667,16920.0,214.039,209.017,5.02199999999999,6.18602869452374,0.869750410044601
143.0,161.666666666667,17040.0,214.182,208.774,5.40799999999999,6.66555978221019,0.937172075985732
144.0,163.666666666667,17160.0,214.119,208.695,5.42400000000001,6.68932969054311,0.940514105022483
145.0,165.666666666667,17280.0,211.771,207.024,4.74699999999999,5.85791968129984,0.823618559889518
146.0,167.666666666667,17400.0,211.484,206.551,4.93300000000002,6.09108801747132,0.856401831033102
147.0,169.666666666667,17520.0,211.71,205.669,6.041,7.46363726114161,1.04938109550781
148.0,171.666666666667,17640.0,212.329,206.855,5.47400000000002,6.76710307565119,0.95144897728523
149.0,173.666666666667,17760.0,212.355,206.429,5.92599999999999,7.33017542154088,1.03061647357504
150.0,175.666666666667,17880.0,210.456,205.234,5.22199999999998,6.46312794208438,0.908710330227686
151.0,177.666666666667,18000.0,212.62,207.023,5.59700000000001,6.93127020485112,0.974530737003528
152.0,179.666666666667,18120.0,210.902,205.74,5.16199999999998,6.39625340095275,0.899307826223417
153.0,181.666666666667,18240.0,210.466,204.725,5.74100000000001,7.11776877347125,1.00075227824431
154.0,183.666666666667,18360.0,211.705,206.047,5.65800000000002,7.01885866767138,0.986845600903292
155.0,185.666666666667,18480.0,211.865,206.123,5.74200000000002,7.12709509762316,1.00206355154352
156.0,187.666666666667,18600.0,211.762,206.43,5.33199999999999,6.62192000055042,0.93103635954031
157.0,189.666666666667,18720.0,212.438,206.29,6.148,7.6396015847437,1.07412153079574
158.0,191.666666666667,18840.0,210.275,204.846,5.429,6.74991680626712,0.94903260232448
159.0,193.666666666667,18960.0,210.851,205.08,5.77099999999999,7.17910111516281,1.00937555368796
160.0,195.666666666667,19080.0,210.403,205.565,4.83799999999999,6.02176763052759,0.846655443173288
161.0,197.666666666667,19200.0,210.979,205.253,5.72600000000003,7.1309492438336,1.0026054412457
162.0,199.666666666667,19320.0,210.699,204.756,5.94300000000001,7.4052268753285,1.04116864459293
163.0,201.666666666667,19440.0,211.385,205.939,5.446,6.78962361666741,0.954615346332407
164.0,203.666666666667,19560.0,209.637,203.719,5.91800000000001,7.38205469924809,1.03791065620607
165.0,205.666666666667,19680.0,209.108,203.775,5.333,6.65590248641118,0.935814268352451
166.0,207.666666666667,19800.0,209.192,203.606,5.58600000000001,6.97538564230621,0.980733330252057
167.0,209.666666666667,19920.0,208.616,203.714,4.90200000000002,6.12451074972647,0.861101038961035
168.0,211.666666666667,20040.0,208.919,203.479,5.44,6.80027844852801,0.956113406693478
169.0,213.666666666667,20160.0,208.699,203.405,5.29400000000001,6.62125563537369,0.93094295035755
170.0,215.666666666667,20280.0,210.314,205.2,5.114,6.39948028884309,0.899761523935534
171.0,217.666666666667,20400.0,208.339,203.311,5.02799999999999,6.29514554975091,0.885092147734991
172.0,219.666666666667,20520.0,208.437,202.714,5.72300000000001,7.16901945342734,1.00795808056241
173.0,221.666666666667,20640.0,207.856,202.61,5.24599999999998,6.57489476596843,0.924424651273204
174.0,223.666666666667,20760.0,207.786,202.588,5.19800000000001,6.51808953771163,0.916437884155107
175.0,225.666666666667,20880.0,208.76,202.901,5.85899999999998,7.35072390003549,1.03350557229718
176.0,227.666666666667,21000.0,208.83,202.978,5.852,7.34568926418841,1.03279770674908
177.0,229.666666666667,21120.0,210.148,204.536,5.612,7.0480113723388,0.990944446558639
178.0,231.666666666667,21240.0,208.069,202.27,5.79899999999998,7.28654806338356,1.02448250386357
179.0,233.666666666667,21360.0,209.375,203.975,5.40000000000001,6.7886182431651,0.95447399166707
180.0,235.666666666667,21480.0,209.543,203.788,5.755,7.23854009727314,1.01773262437353
181.0,237.666666666667,21600.0,207.603,202.212,5.39100000000002,6.78409876889058,0.95383855740099
182.0,239.666666666667,21720.0,207.357,201.571,5.786,7.28479934963494,1.02423663618739
183.0,241.666666666667,21840.0,208.803,203.663,5.13999999999999,6.47467234196901,0.910333463101651
184.0,243.666666666667,21960.0,208.768,203.2,5.56800000000001,7.0172767891877,0.98662319012446
185.0,245.666666666667,22080.0,209.205,203.571,5.63400000000001,7.10395391899621,0.998809921372438
186.0,247.666666666667,22200.0,206.331,201.46,4.87099999999998,6.14489630383239,0.863967230651724
187.0,249.666666666667,22320.0,206.469,201.091,5.37799999999999,6.78780880900182,0.954360185907319
188.0,251.666666666667,22440.0,206.012,200.699,5.31299999999999,6.70903791943153,0.943285065359626
189.0,253.666666666667,22560.0,206.469,200.794,5.67499999999998,7.16963738691487,1.00804496148888
190.0,255.666666666667,22680.0,207.533,201.984,5.54899999999998,7.01384600764709,0.986140825137315
191.0,257.666666666667,22800.0,205.596,200.242,5.35400000000001,6.77063403747614,0.951945427535748
192.0,259.666666666667,22920.0,207.568,202.082,5.48600000000002,6.94089632007557,0.975884160674358
193.0,261.666666666667,23040.0,207.661,201.972,5.68899999999999,7.20118205245544,1.01248011482287
194.0,263.666666666667,23160.0,205.328,199.763,5.565,7.04758728488592,0.990884820220926
195.0,265.666666666667,23280.0,206.28,200.996,5.28399999999999,6.69491225924443,0.941299009467135
196.0,267.666666666667,23400.0,204.745,199.747,4.99799999999999,6.33555228366128,0.890773300397315
197.0,269.666666666667,23520.0,206.928,201.216,5.71199999999999,7.24405845035974,1.01850850015698
198.0,271.666666666667,23640.0,206.675,201.226,5.44900000000001,6.91377846680547,0.972071413406942
199.0,273.666666666667,23760.0,206.356,201.154,5.202,6.60348660334618,0.928444639461303
200.0,275.666666666667,23880.0,204.313,199.078,5.23499999999999,6.64849504267179,0.934772788018644
201.0,277.666666666667,24000.0,204.16,199.098,5.06199999999998,6.43179115285691,0.904304404127763
202.0,279.666666666667,24120.0,206.42,200.904,5.51599999999999,7.01191449565272,0.985869256182163
203.0,281.666666666667,24240.0,206.499,201.184,5.315,6.75954752694685,0.950386673518433
204.0,283.666666666667,24360.0,206.607,200.932,5.67500000000001,7.22073952257532,1.01522987860448
205.0,285.666666666667,24480.0,206.817,201.347,5.47,6.96312286415573,0.979009194000618
206.0,287.666666666667,24600.0,204.736,199.598,5.13799999999998,6.54351684562127,0.920012942172591
207.0,289.666666666667,24720.0,204.969,199.741,5.22799999999998,6.66120164249588,0.936559325222562
208.0,291.666666666667,24840.0,204.347,199.215,5.13200000000001,6.54188672292529,0.919783748298255
209.0,293.666666666667,24960.0,204.196,199.149,5.047,6.43648187850658,0.904963916192559
210.0,295.666666666667,25080.0,205.654,200.464,5.19,6.62187519533845,0.931030059965346
