"Frame","Time (aligned)","Time [ s]","Intensity Ch3-T2","background","Intensity (bg-subst)","bleach-Corrected","Normalized"
1.0,-5.266666666666667,0.0,142.047,126.199,15.847999999999999,15.848158480792401,0.9968224733353447
2.0,-4.266666666666667,60.0,141.299,125.536,15.763000000000005,15.763315263152625,0.9914859778582259
3.0,-3.2666666666666666,120.0,139.046,122.833,16.212999999999994,16.213486397295917,1.0198009839142768
4.0,-2.2666666666666666,180.0,138.307,122.43,15.876999999999981,15.87763509270175,0.9986765025731664
5.0,-0.3333333333333333,296.0,138.716,122.926,15.790000000000006,15.790789519737835,0.9932140623189858
6.0,0.7666666666666668,362.0,145.991,129.466,16.525000000000006,16.5259915297456,1.0394570303524815
7.0,1.7666666666666668,422.0,142.971,127.164,15.807000000000002,15.808106528728057,0.9943032730151891
8.0,2.7666666666666666,482.0,142.714,126.693,16.021,16.022281731268567,1.0077745324919465
9.0,3.766666666666666,542.0,145.01,128.415,16.595,16.596493617211767,1.0438914928983039
10.0,4.766666666666667,602.0,142.723,126.434,16.289000000000016,16.290628981447732,1.0246531225161775
11.0,5.766666666666667,662.0,144.601,128.139,16.46199999999999,16.463810919598743,1.0355459747131015
12.0,6.766666666666667,722.0,144.048,127.969,16.079000000000008,16.080929595773437,1.0114633843811067
13.0,7.766666666666667,782.0,144.004,128.241,15.762999999999977,15.7650493232031,0.9915950473144987
14.0,8.766666666666666,842.0,141.771,125.685,16.085999999999984,16.088252197650142,1.0119239637047446
15.0,9.766666666666666,902.0,143.518,127.631,15.887,15.889383228737687,0.9994154405409194
16.0,10.766666666666666,962.0,144.102,127.534,16.567999999999998,16.570651092081707,1.042266041597536
17.0,11.766666666666666,1022.0,143.358,127.584,15.774000000000001,15.776681807947218,0.9923267110108027
18.0,12.766666666666666,1082.0,141.31,125.521,15.789000000000001,15.79184227579715,0.9932802789018232
19.0,13.766666666666666,1142.0,141.46,125.521,15.939000000000007,15.942028697717179,1.0027267518621457
20.0,14.766666666666666,1202.0,140.974,125.434,15.539999999999992,15.543108310820713,0.9776353314796468
21.0,15.766666666666667,1262.0,143.438,127.321,16.11699999999999,16.120384925404718,1.013945058155191
22.0,16.76666666666667,1322.0,143.016,127.362,15.653999999999996,15.657444258854579,0.9848268700201271
23.0,17.76666666666667,1382.0,141.207,125.567,15.64,15.643597613709717,0.9839559393642137
24.0,18.76666666666667,1442.0,141.15,125.174,15.975999999999999,15.979834700145611,1.0051046857333463
25.0,19.76666666666667,1502.0,141.315,125.445,15.870000000000005,15.873967995978834,0.9984458483662612
26.0,20.76666666666667,1562.0,145.276,129.271,16.005000000000024,16.00916184101591,1.0069493134945853
27.0,21.76666666666667,1622.0,143.008,127.142,15.866000000000014,15.870284398367765,0.9982141562812856
28.0,22.76666666666667,1682.0,140.87,125.245,15.625,15.62937561255717,0.9830613994476775
29.0,23.76666666666667,1742.0,142.462,127.127,15.334999999999994,15.339447794899082,0.9648254280799679
30.0,24.76666666666667,1802.0,142.329,127.281,15.048000000000002,15.052515077227723,0.9467778434563886
31.0,25.76666666666667,1862.0,142.974,127.031,15.942999999999984,15.9479430961403,1.0030987575605725
32.0,26.76666666666667,1922.0,142.631,127.159,15.471999999999994,15.476951832250899,0.973474200413533
33.0,27.76666666666667,1982.0,140.41,125.231,15.179000000000002,15.184009896587474,0.9550486461003572
34.0,28.76666666666667,2042.0,142.581,127.14,15.440999999999988,15.446250832590945,0.971543159248593
35.0,29.76666666666667,2102.0,140.467,125.094,15.373000000000019,15.378381491706131,0.9672742920280617
36.0,30.76666666666667,2162.0,140.583,124.957,15.626000000000005,15.631626372686323,0.9832029684685543
37.0,31.76666666666667,2222.0,140.472,125.029,15.443000000000012,15.448714967203745,0.971698149165077
38.0,32.766666666666666,2282.0,139.863,124.971,14.891999999999996,14.8976600353386,0.9370377221639716
39.0,33.766666666666666,2342.0,140.003,124.773,15.22999999999999,15.235940858392077,0.95831501612382
40.0,34.766666666666666,2402.0,139.679,124.877,14.802000000000007,14.80792198431791,0.9313933499121954
41.0,35.766666666666666,2462.0,139.707,124.696,15.010999999999996,15.017155771846992,0.9445538027081996
42.0,36.766666666666666,2522.0,141.619,126.496,15.123000000000005,15.129352994035363,0.9516108189955313
43.0,37.766666666666666,2582.0,139.495,124.908,14.587000000000003,14.59327375876147,0.9178923380845098
44.0,38.766666666666666,2642.0,141.504,126.542,14.961999999999989,14.968584728534033,0.9414987658983152
45.0,39.766666666666666,2702.0,139.141,124.614,14.526999999999987,14.53353862107939,0.9141350985439383
46.0,40.766666666666666,2762.0,138.798,124.652,14.146,14.152508656876314,0.8901689556136968
47.0,41.766666666666666,2822.0,141.255,126.53,14.724999999999994,14.731922376631072,0.9266131026046784
48.0,42.766666666666666,2882.0,141.069,126.503,14.565999999999988,14.5729933582717,0.9166167350546093
49.0,43.766666666666666,2942.0,138.888,124.409,14.479,14.486096448487892,0.9111510658009305
50.0,44.766666666666666,3002.0,138.879,124.338,14.540999999999997,14.548272317927973,0.9150618232578397
51.0,45.766666666666666,3062.0,138.851,124.608,14.242999999999995,14.250265782617076,0.8963177141577992
52.0,46.766666666666666,3122.0,139.016,124.393,14.62299999999999,14.63060593737232,0.9202404692357073
53.0,47.766666666666666,3182.0,141.074,126.621,14.453000000000017,14.460662120282535,0.9095512893991476
54.0,48.766666666666666,3242.0,138.7,124.516,14.183999999999983,14.19166142839948,0.8926315989924185
55.0,49.766666666666666,3302.0,140.888,126.341,14.547000000000011,14.555003050637193,0.9154851750078046
56.0,50.766666666666666,3362.0,140.882,126.509,14.373000000000005,14.381051134107151,0.9045438924678139
57.0,51.766666666666666,3422.0,138.38,124.671,13.708999999999989,13.716816357450234,0.8627646438727814
58.0,52.766666666666666,3482.0,138.276,124.513,13.763000000000005,13.770984855384224,0.8661717511498106
59.0,53.766666666666666,3542.0,140.301,126.349,13.951999999999984,13.96023410882323,0.8780752104140888
60.0,54.766666666666666,3602.0,140.57,126.442,14.128,14.136479343548684,0.889160738805638
61.0,55.766666666666666,3662.0,140.608,126.508,14.100000000000009,14.108603623838496,0.8874074029905532
62.0,56.766666666666666,3722.0,139.859,126.544,13.315000000000012,13.323257859671983,0.8380104772840936
63.0,57.766666666666666,3782.0,140.552,126.331,14.22099999999999,14.229962052750185,0.8950406437493743
64.0,58.766666666666666,3842.0,139.711,126.361,13.350000000000009,13.358546734663372,0.8402300880794281
65.0,59.766666666666666,3902.0,139.936,126.573,13.363000000000014,13.371688773545499,0.8410567001882752
66.0,60.766666666666666,3962.0,141.583,128.277,13.306000000000012,13.314784858684487,0.8374775397941534
67.0,61.766666666666666,4022.0,139.473,126.117,13.356000000000009,13.364951518423819,0.8406329381895532
68.0,62.766666666666666,4082.0,139.535,126.253,13.281999999999996,13.291034831494562,0.8359837030891548
69.0,63.76666666666666,4142.0,139.36,126.388,12.972000000000008,12.980953768694967,0.8164801265487661
70.0,64.76666666666667,4202.0,139.462,126.246,13.215999999999994,13.225254438675641,0.8318462271832823
71.0,65.76666666666667,4262.0,136.848,124.101,12.747000000000014,12.756053583641881,0.8023342837374451
72.0,66.76666666666667,4322.0,137.274,123.993,13.281000000000006,13.29056576326154,0.8359541994874101
73.0,67.76666666666667,4382.0,137.522,124.224,13.297999999999988,13.307711084114436,0.8370326112889721
74.0,68.76666666666667,4442.0,138.592,126.163,12.429000000000016,12.438200863899793,0.7823418830661821
75.0,69.76666666666667,4502.0,136.97,124.198,12.772000000000006,12.781582593023204,0.8039400154257124
76.0,70.76666666666667,4562.0,138.744,126.015,12.729,12.738677717066665,0.8012413709982871
77.0,71.76666666666667,4622.0,136.538,123.58,12.958000000000013,12.967981502385262,0.8156641928487544
78.0,72.76666666666667,4682.0,137.123,123.854,13.268999999999991,13.279353857479467,0.8352489894993832
79.0,73.76666666666667,4742.0,136.122,123.65,12.472000000000008,12.481856772912675,0.7850877662077892
80.0,74.76666666666667,4802.0,137.856,125.743,12.113,12.12269427719385,0.762497050210997
81.0,75.76666666666667,4862.0,136.577,123.997,12.579999999999998,12.590193927983478,0.791901990775437
82.0,76.76666666666667,4922.0,135.724,123.778,11.945999999999984,11.955799737343183,0.7519996647764852
83.0,77.76666666666667,4982.0,137.903,125.734,12.168999999999997,12.179104462771967,0.766045155864877
84.0,78.76666666666667,5042.0,136.436,124.024,12.412000000000006,12.42243046017997,0.7813499512363394
85.0,79.76666666666667,5102.0,138.297,125.579,12.718000000000004,12.728814895679522,0.8006210161462636
86.0,80.76666666666667,5162.0,135.684,123.49,12.194000000000003,12.204491350634159,0.7676419483489846
87.0,81.76666666666667,5222.0,135.242,123.594,11.647999999999996,11.658138169464248,0.7332772535468417
88.0,82.76666666666667,5282.0,137.491,125.573,11.91800000000002,11.928492456003548,0.7502820827774138
89.0,83.76666666666667,5342.0,135.242,123.506,11.73599999999999,11.746449689422017,0.7388318993976513
90.0,84.76666666666667,5402.0,137.414,125.396,12.017999999999986,12.028821068750501,0.7565925835227169
91.0,85.76666666666667,5462.0,137.01,125.153,11.856999999999985,11.867794780880356,0.7464643012531227
92.0,86.76666666666667,5522.0,136.17,125.148,11.021999999999991,11.032144905941172,0.693903331712793
93.0,87.76666666666667,5582.0,135.063,123.554,11.508999999999986,11.519708348610285,0.7245702509904086
94.0,88.76666666666667,5642.0,136.528,125.253,11.274999999999991,11.285603482856164,0.7098454492676286
95.0,89.76666666666667,5702.0,134.726,123.3,11.426000000000002,11.436859857615618,0.7193592204592907
96.0,90.76666666666667,5762.0,136.665,125.292,11.37299999999999,11.38392332235581,0.7160296015593132
97.0,91.76666666666667,5822.0,134.784,123.416,11.367999999999995,11.379032309805226,0.7157219651084474
98.0,92.76666666666667,5882.0,136.401,125.402,10.99900000000001,11.009784303445594,0.6924968874806807
99.0,93.76666666666667,5942.0,136.159,125.414,10.74499999999999,10.755642817325315,0.676511816087145
100.0,94.76666666666667,6002.0,134.386,123.518,10.867999999999995,10.878873435811782,0.6842628144166482
101.0,95.76666666666667,6062.0,134.838,123.632,11.205999999999989,11.217323777545033,0.705550770815912
102.0,96.76666666666667,6122.0,133.935,123.363,10.572000000000003,10.58278894142473,0.6656395984531749
103.0,97.76666666666667,6182.0,136.296,125.227,11.068999999999988,11.080406943567457,0.6969389325854838
104.0,98.76666666666667,6242.0,133.958,123.244,10.713999999999999,10.725148356140352,0.6745937658443824
105.0,99.76666666666667,6302.0,134.027,123.054,10.972999999999985,10.984527700983893,0.6909082897288074
106.0,100.76666666666667,6362.0,133.762,123.435,10.326999999999998,10.337952423759079,0.6502397939018714
107.0,101.76666666666667,6422.0,135.836,125.308,10.528000000000006,10.539270988903723,0.6629023925425289
108.0,102.76666666666667,6482.0,135.246,125.006,10.240000000000009,10.251065174118498,0.6447747322549299
109.0,103.76666666666667,6542.0,133.519,123.101,10.418000000000006,10.42936181106212,0.6559892903905593
110.0,104.76666666666667,6602.0,135.049,124.931,10.11800000000001,10.129135923635136,0.6371055877807592
111.0,105.76666666666667,6662.0,132.926,123.152,9.773999999999987,9.784855163501177,0.61545090788502
112.0,106.76666666666667,6722.0,134.992,125.098,9.893999999999991,9.905087487834166,0.6230133185626846
113.0,107.76666666666667,6782.0,134.986,125.114,9.871999999999986,9.883161665153104,0.6216342212485495
114.0,108.76666666666667,6842.0,135.187,125.007,10.180000000000007,10.19161181747841,0.6410352162672592
115.0,109.76666666666667,6902.0,134.389,125.074,9.315000000000012,9.3257184119056,0.5865719795931711
116.0,110.76666666666667,6962.0,132.596,123.017,9.579000000000008,9.590118087243901,0.6032022738093235
117.0,111.76666666666667,7022.0,134.623,124.798,9.824999999999989,9.836501977344646,0.6186994054803546
118.0,112.76666666666667,7082.0,134.358,124.761,9.597000000000008,9.608331144060214,0.6043478444044584
119.0,113.76666666666667,7142.0,134.225,124.815,9.409999999999997,9.421204565394175,0.5925778978079037
120.0,114.76666666666667,7202.0,133.737,124.917,8.819999999999993,8.830590352940915,0.5554292586926272
121.0,115.76666666666667,7262.0,132.079,122.672,9.40700000000001,9.418389359172714,0.5924008260785903
122.0,116.76666666666667,7322.0,132.01,122.696,9.313999999999993,9.325370014298453,0.5865500659705328
123.0,117.76666666666667,7382.0,134.261,124.698,9.563000000000002,9.574769726898177,0.6022368877968092
124.0,118.76666666666667,7442.0,131.734,122.599,9.135000000000005,9.14633442589174,0.5752890290325866
125.0,119.76666666666667,7502.0,134.098,124.902,9.196000000000012,9.207502187369437,0.5791363781967487
126.0,120.76666666666667,7562.0,133.952,124.881,9.070999999999998,9.082436663584986,0.571269967414771
127.0,121.76666666666667,7622.0,133.674,125.093,8.581000000000003,8.591904793077912,0.5404163390262552
128.0,122.76666666666667,7682.0,131.391,122.913,8.477999999999994,8.488858788141819,0.5339349188895108
129.0,123.76666666666667,7742.0,131.419,122.832,8.587000000000018,8.598084377886629,0.5408050245016481
130.0,124.76666666666667,7802.0,133.755,124.911,8.843999999999994,8.855504676419425,0.5569963276730028
131.0,125.76666666666667,7862.0,133.68,124.851,8.829000000000008,8.840573569032607,0.5560571861687704
132.0,126.76666666666667,7922.0,131.553,123.021,8.531999999999996,8.54326967635003,0.5373572721064993
133.0,127.76666666666667,7982.0,131.348,122.934,8.414000000000016,8.425198065062593,0.5299307666398309
134.0,128.76666666666665,8042.0,131.949,122.892,9.057000000000016,9.069144515007848,0.5704339136589568
135.0,129.76666666666665,8102.0,130.701,122.754,7.9469999999999885,7.957735694963605,0.5005281709680354
136.0,130.76666666666665,8162.0,133.091,124.8,8.291000000000011,8.302283430993935,0.5221996431979543
137.0,131.76666666666665,8222.0,133.424,124.709,8.715000000000003,8.726947732327924,0.5489103124347632
138.0,132.76666666666665,8282.0,131.182,122.642,8.539999999999992,8.551793335529906,0.53789339591141
139.0,133.76666666666665,8342.0,133.089,124.606,8.483000000000004,8.494799568800492,0.5343085839861148
140.0,134.76666666666665,8402.0,133.069,124.567,8.501999999999995,8.513911135849606,0.5355106693614158
141.0,135.76666666666665,8462.0,130.896,122.537,8.35899999999998,8.370794503170663,0.5265088742357958
142.0,136.76666666666665,8522.0,130.906,122.824,8.082000000000008,8.093484592130627,0.509066547940387
143.0,137.76666666666665,8582.0,132.323,124.938,7.385000000000005,7.395568104393754,0.46516877645289473
144.0,138.76666666666665,8642.0,133.142,124.634,8.507999999999996,8.520260345330046,0.5359100239429394
145.0,139.76666666666665,8702.0,130.451,122.821,7.6299999999999955,7.641071524915736,0.48061052807051063
146.0,140.76666666666665,8762.0,132.195,124.594,7.600999999999999,7.612105565089797,0.4787886179885778
147.0,141.76666666666665,8822.0,132.299,124.468,7.831000000000003,7.842520035151368,0.49328130003850795
148.0,142.76666666666665,8882.0,130.661,122.745,7.915999999999997,7.927724353881785,0.4986405081659787
149.0,143.76666666666665,8942.0,129.912,122.71,7.202000000000012,7.212738978552234,0.4536691324002457
150.0,144.76666666666665,9002.0,131.756,124.5,7.256,7.266892167083031,0.45707527674160175
151.0,145.76666666666665,9062.0,130.343,122.768,7.574999999999989,7.586446890227106,0.47717473055994475
152.0,146.76666666666665,9122.0,131.936,124.803,7.13300000000001,7.143850404218151,0.44933615711258235
153.0,147.76666666666665,9182.0,131.756,124.522,7.233999999999995,7.245076491355134,0.455703107485286
154.0,148.76666666666665,9242.0,131.766,124.557,7.208999999999989,7.220110412822074,0.45413278319915695
155.0,149.76666666666665,9302.0,129.665,122.797,6.867999999999995,6.878653654449243,0.4326557282573606
156.0,150.76666666666665,9362.0,130.037,122.933,7.103999999999999,7.115090888643909,0.4475272320263405
157.0,151.76666666666665,9422.0,131.171,124.582,6.588999999999999,6.599352854864504,0.4150881784260014
158.0,152.76666666666665,9482.0,131.121,124.604,6.51700000000001,6.527304998805284,0.4105564896394143
159.0,153.76666666666665,9542.0,129.52,122.475,7.045000000000016,7.056210459953916,0.4438237522416741
160.0,154.76666666666665,9602.0,129.578,122.402,7.176000000000002,7.187490790180778,0.4520810638804758
161.0,155.76666666666665,9662.0,128.896,122.304,6.5919999999999845,6.602621668148475,0.41529378127547745
162.0,156.76666666666665,9722.0,131.129,124.352,6.776999999999987,6.787987637583433,0.42695298851701935
163.0,157.76666666666665,9782.0,130.518,123.97,6.548000000000002,6.558681943418817,0.4125300466033528
164.0,158.76666666666665,9842.0,132.57,126.433,6.136999999999986,6.147072937551097,0.38664053346064675
165.0,159.76666666666665,9902.0,130.748,124.378,6.36999999999999,6.380519175933598,0.40132390863116324
166.0,160.76666666666665,9962.0,129.08,122.448,6.632000000000019,6.64301826262784,0.4178346590230119
167.0,161.76666666666665,10022.0,128.542,122.166,6.376000000000005,6.386656815964602,0.40170995585069114
168.0,162.76666666666665,10082.0,130.299,124.142,6.157000000000011,6.167352453626159,0.38791608086235196
169.0,163.76666666666665,10142.0,128.531,122.173,6.358000000000004,6.3687541046588745,0.40058390546541683
170.0,164.76666666666665,10202.0,128.786,122.193,6.5930000000000035,6.604217632285867,0.4153941647314302
171.0,165.76666666666665,10262.0,128.38,122.259,6.120999999999995,6.131475864311275,0.38565950382603303
172.0,166.76666666666665,10322.0,130.401,124.003,6.39800000000001,6.409014029349926,0.40311618691347706
173.0,167.76666666666665,10382.0,130.56,124.354,6.206000000000003,6.216745672326506,0.39102283111920655
174.0,168.76666666666665,10442.0,128.614,122.071,6.543000000000006,6.554394730540687,0.41226038813482646
175.0,169.76666666666665,10502.0,128.171,122.417,5.753999999999991,5.7640783159543805,0.36255081688967233
176.0,170.76666666666665,10562.0,130.131,123.913,6.2180000000000035,6.228953316090747,0.39179067134906137
177.0,171.76666666666665,10622.0,127.936,122.075,5.861000000000004,5.87138315638262,0.36930011060516427
178.0,172.76666666666665,10682.0,129.589,124.306,5.283000000000001,5.292412114296614,0.3328838072938878
179.0,173.76666666666665,10742.0,130.061,124.237,5.824000000000012,5.834434295908807,0.3669760895191139
180.0,174.76666666666665,10802.0,129.847,124.121,5.726000000000013,5.736316081688191,0.36080461911785683
181.0,175.76666666666665,10862.0,129.317,124.192,5.125000000000014,5.134284650073544,0.3229378561488305
182.0,176.76666666666665,10922.0,127.683,121.992,5.6910000000000025,5.701367051154902,0.35860638396649286
183.0,177.76666666666665,10982.0,129.879,123.909,5.969999999999985,5.98093510256712,0.3761907434876336
184.0,178.76666666666665,11042.0,127.762,122.052,5.709999999999994,5.720516071819133,0.35981082511109663
185.0,179.76666666666665,11102.0,129.144,123.806,5.338000000000008,5.34788444028815,0.33637292315953016
186.0,180.76666666666665,11162.0,127.231,121.902,5.3289999999999935,5.338921163822077,0.3358091481678219
187.0,181.76666666666665,11222.0,127.19,122.164,5.025999999999996,5.0354074131899305,0.31671864450059106
188.0,182.76666666666665,11282.0,127.223,121.987,5.236000000000004,5.245852938860514,0.32995531358460817
189.0,183.76666666666665,11342.0,129.196,123.97,5.225999999999999,5.235886479780434,0.3293284400962693
190.0,184.76666666666665,11402.0,129.356,123.933,5.422999999999988,5.433313494717327,0.34174626678390146
191.0,185.76666666666665,11462.0,128.94,123.659,5.280999999999992,5.291096348943859,0.3328010478695136
192.0,186.76666666666665,11522.0,129.272,123.865,5.4069999999999965,5.417391412563816,0.3407447946360714
193.0,187.76666666666665,11582.0,127.351,122.007,5.343999999999994,5.354323879338938,0.3367779530290433
194.0,188.76666666666665,11642.0,126.901,121.837,5.063999999999993,5.073833695600551,0.31913559293785343
