"Frame","Time (aligned)","Time [ s]","Intensity Ch3-T2","background","Intensity (bg-subst)","bleach-Corrected","Normalized"
1.0,-4.8,0.0,143.037,123.789,19.248000000000005,19.24819248096241,0.9995438448228582
2.0,-3.8000000000000003,60.0,144.744,125.167,19.576999999999998,19.577391543915425,1.0166388991985658
3.0,-2.8000000000000003,120.0,141.773,122.736,19.036999999999992,19.037571118566728,0.9886064393195086
4.0,-1.7999999999999998,180.0,143.944,124.651,19.292999999999992,19.293771735434596,1.0019107404835468
5.0,-0.3333333333333333,268.0,143.824,124.697,19.12700000000001,19.127956373909157,0.9933000761755212
6.0,1.2333333333333334,362.0,148.33,128.288,20.042,20.043202556076324,1.040828107121161
7.0,2.2333333333333334,422.0,147.616,128.063,19.553000000000026,19.554368757905994,1.015443343612286
8.0,3.2333333333333334,482.0,146.757,127.472,19.28500000000001,19.286542861713656,1.001535350626036
9.0,4.233333333333333,542.0,148.963,129.085,19.877999999999986,19.8797891005083,1.0323421719438293
10.0,5.233333333333333,602.0,146.311,126.854,19.457000000000008,19.45894579728825,1.0104881025924046
11.0,6.233333333333333,662.0,146.602,127.323,19.27900000000001,19.28112080664224,1.0012537874725977
12.0,7.233333333333333,722.0,146.227,126.567,19.66000000000001,19.66235934155767,1.0210512116390955
13.0,8.233333333333333,782.0,146.13,126.786,19.343999999999994,19.34651488346388,1.0046496516317698
14.0,9.233333333333333,842.0,145.628,126.397,19.23099999999998,19.233692528472574,0.9987908734321276
15.0,10.233333333333333,902.0,148.479,128.433,20.04600000000002,20.049007125528796,1.0411295339524753
16.0,11.233333333333333,962.0,145.667,126.499,19.168000000000006,19.171067125363493,0.9955387843713421
17.0,12.233333333333333,1022.0,145.358,126.332,19.02600000000001,19.02923469494129,0.988173535246522
18.0,13.233333333333333,1082.0,145.155,126.254,18.900999999999996,18.90440248621457,0.9816910945710222
19.0,14.233333333333333,1142.0,144.826,126.208,18.617999999999995,18.62153775607618,0.9670021464941082
20.0,15.233333333333333,1202.0,144.903,125.707,19.195999999999998,19.199839583945593,0.9970329160361519
21.0,16.233333333333334,1262.0,146.906,127.79,19.116,19.120014781537307,0.9928876753861366
22.0,17.233333333333334,1322.0,146.663,127.632,19.031000000000006,19.035187280583983,0.9884826484448557
23.0,18.233333333333334,1382.0,146.682,127.659,19.022999999999982,19.02737579319691,0.9880770039073552
24.0,19.233333333333334,1442.0,146.542,127.425,19.117000000000004,19.121588630613655,0.9929694041592928
25.0,20.233333333333334,1502.0,146.258,127.432,18.826000000000008,18.830707088361535,0.9778641491895987
26.0,21.233333333333334,1562.0,146.269,127.462,18.807000000000002,18.811890455731696,0.9768870159162251
27.0,22.233333333333334,1622.0,146.478,127.402,19.076000000000008,19.08115121538279,0.9908695202593092
28.0,23.233333333333334,1682.0,145.783,127.459,18.323999999999984,18.32913143836783,0.9518177111066414
29.0,24.233333333333334,1742.0,143.585,125.389,18.196000000000012,18.20127760521578,0.9451783597966138
30.0,25.233333333333334,1802.0,146.031,127.175,18.85600000000001,18.861657648604865,0.9794713879999772
31.0,26.233333333333334,1862.0,143.961,124.957,19.00400000000002,19.009892153236585,0.98716909191901
32.0,27.233333333333334,1922.0,143.629,125.17,18.45899999999999,18.464907825201607,0.9588684745415051
33.0,28.233333333333334,1982.0,143.356,125.277,18.078999999999994,18.084967054509836,0.939138442273913
34.0,29.233333333333334,2042.0,145.104,126.759,18.345000000000013,18.351238360461195,0.9529657065835287
35.0,30.233333333333334,2102.0,143.191,124.993,18.198000000000008,18.20437041475756,0.9453389670195389
36.0,31.233333333333334,2162.0,143.16,124.898,18.262,18.268575503519617,0.94867308794242
37.0,32.233333333333334,2222.0,143.174,124.775,18.399,18.40580888956689,0.9557995122268521
38.0,33.233333333333334,2282.0,142.335,124.418,17.917,17.923809753771273,0.9307696674831986
39.0,34.233333333333334,2342.0,142.374,124.284,18.08999999999999,18.097056475923353,0.9397662366381527
40.0,35.233333333333334,2402.0,141.359,124.441,16.918000000000006,16.92476855362048,0.8788902256435128
41.0,36.233333333333334,2462.0,143.645,126.156,17.489000000000004,17.49617196015137,0.9085627654663381
42.0,37.233333333333334,2522.0,143.821,126.404,17.417,17.42431667639449,0.9048313757959456
43.0,38.233333333333334,2582.0,141.58,124.473,17.107000000000014,17.114357591768876,0.8887354387103784
44.0,39.233333333333334,2642.0,141.382,124.537,16.845,16.852413430835178,0.8751328797164611
45.0,40.233333333333334,2702.0,141.343,124.462,16.880999999999986,16.888598159457644,0.8770119248687238
46.0,41.233333333333334,2762.0,141.062,124.563,16.49900000000001,16.506591285861898,0.8571746014649649
47.0,42.233333333333334,2822.0,142.705,126.354,16.351000000000013,16.35868677625093,0.8494940339337848
48.0,43.233333333333334,2882.0,140.591,124.174,16.417,16.424882051541037,0.8529315037137665
49.0,44.233333333333334,2942.0,143.056,126.224,16.832000000000008,16.840249701011693,0.8745012265735919
50.0,45.233333333333334,3002.0,140.6,124.144,16.45599999999999,16.464230057342863,0.854974815419225
51.0,46.233333333333334,3062.0,143.046,125.946,17.099999999999994,17.1087232242331,0.8884428503338113
52.0,47.233333333333334,3122.0,140.765,124.181,16.58399999999999,16.59262592254548,0.8616423140371298
53.0,48.233333333333334,3182.0,142.663,126.005,16.658000000000015,16.666831080029503,0.8654957308444807
54.0,49.233333333333334,3242.0,140.533,124.115,16.417999999999992,16.426868114175324,0.853034638420233
55.0,50.233333333333334,3302.0,142.492,126.041,16.450999999999993,16.46005053866998,0.8547577762261717
56.0,51.233333333333334,3362.0,140.649,124.115,16.534000000000006,16.543261633015213,0.8590788644143752
57.0,52.233333333333334,3422.0,140.549,123.982,16.567000000000007,16.57644588182058,0.8608020969553672
58.0,53.233333333333334,3482.0,142.344,126.032,16.311999999999998,16.32146370420892,0.84756106840563
59.0,54.233333333333334,3542.0,140.196,123.937,16.259,16.268595640435574,0.8448156704788056
60.0,55.233333333333334,3602.0,140.428,123.783,16.644999999999996,16.654989996699307,0.8648808324860796
61.0,56.233333333333334,3662.0,142.458,125.693,16.765,16.77522976976257,0.8711247915064995
62.0,57.233333333333334,3722.0,139.876,123.861,16.015,16.024932378719235,0.8321624245338206
63.0,58.233333333333334,3782.0,139.796,123.632,16.163999999999987,16.17418652841952,0.8399130778377473
64.0,59.233333333333334,3842.0,141.9,125.472,16.42800000000001,16.438517285172274,0.8536395709186381
65.0,60.233333333333334,3902.0,141.21,125.81,15.400000000000006,15.410013253954991,0.8002301469015248
66.0,61.233333333333334,3962.0,139.634,123.577,16.056999999999988,16.0676011179841,0.8343781793762938
67.0,62.233333333333334,4022.0,139.67,123.76,15.909999999999982,15.920663271797139,0.8267478099339178
68.0,63.233333333333334,4082.0,138.782,123.669,15.113000000000014,15.12328033491775,0.7853403267474905
69.0,64.23333333333333,4142.0,139.182,123.618,15.563999999999993,15.574742865862492,0.8087844290662036
70.0,65.23333333333333,4202.0,141.184,125.437,15.747,15.758026758915362,0.8183022207932639
71.0,66.23333333333333,4262.0,141.241,125.784,15.457000000000008,15.467978366859061,0.8032402306730286
72.0,67.23333333333333,4322.0,141.182,125.572,15.609999999999985,15.621243247083228,0.8111991581311313
73.0,68.23333333333333,4382.0,139.474,123.821,15.652999999999992,15.664430861756907,0.8134418577748694
74.0,69.23333333333333,4442.0,138.962,123.842,15.11999999999999,15.131192940877344,0.7857512222947605
75.0,70.23333333333333,4502.0,138.649,123.614,15.034999999999997,15.046280479651093,0.7813417834317917
76.0,71.23333333333333,4562.0,140.27,125.467,14.803000000000011,14.814254556189644,0.7692928555200091
77.0,72.23333333333333,4622.0,138.502,123.694,14.808000000000007,14.819406550958547,0.7695603946494578
78.0,73.23333333333333,4682.0,137.979,123.685,14.294000000000011,14.305153669365572,0.7428556376710002
79.0,74.23333333333333,4742.0,139.625,125.148,14.477000000000004,14.48844134873771,0.7523736260187105
80.0,75.23333333333333,4802.0,137.898,123.287,14.61099999999999,14.622693476767045,0.7593452358651319
81.0,76.23333333333333,4862.0,137.702,123.162,14.539999999999992,14.55178217113511,0.7556628662533953
82.0,77.23333333333333,4922.0,137.779,123.309,14.469999999999999,14.481870266143988,0.7520323947489758
83.0,78.23333333333333,4982.0,137.354,122.932,14.422000000000011,14.433975229032582,0.7495452422753283
84.0,79.23333333333333,5042.0,138.956,124.813,14.142999999999986,14.154885111047783,0.7350523069070592
85.0,80.23333333333333,5102.0,139.265,125.087,14.177999999999983,14.190056423253969,0.7368787261235549
86.0,81.23333333333333,5162.0,139.025,124.937,14.088000000000008,14.10012089123619,0.7322084430542146
87.0,82.23333333333333,5222.0,137.137,123.223,13.914000000000001,13.926110447280701,0.7231722144128693
88.0,83.23333333333333,5282.0,137.452,123.217,14.235,14.247532313409147,0.7398634049336376
89.0,84.23333333333333,5342.0,138.475,124.805,13.669999999999987,13.68217171561,0.7105046635248311
90.0,85.23333333333333,5402.0,138.484,124.846,13.638000000000005,13.650279725047394,0.7088485369613873
91.0,86.23333333333333,5462.0,138.913,124.678,14.235000000000014,14.247959745790018,0.7398856011687283
92.0,87.23333333333333,5522.0,138.637,124.725,13.912000000000006,13.92480492936434,0.7231044198706599
93.0,88.23333333333333,5582.0,136.925,123.059,13.866000000000014,13.878901378211015,0.7207206837325161
94.0,89.23333333333333,5642.0,138.011,124.682,13.328999999999994,13.34153515059777,0.6928156684560042
95.0,90.23333333333333,5702.0,135.898,122.922,12.975999999999999,12.988333057274657,0.6744741551576078
96.0,91.23333333333333,5762.0,136.31,122.637,13.673000000000002,13.686132382535051,0.7107103379147898
97.0,92.23333333333333,5822.0,135.761,122.919,12.841999999999999,12.854462783472798,0.6675223747077944
98.0,93.23333333333333,5882.0,135.777,122.567,13.209999999999994,13.222952145514693,0.6866577441237003
99.0,94.23333333333333,5942.0,137.719,124.434,13.284999999999997,13.298158662463182,0.6905631607585754
100.0,95.23333333333333,6002.0,136.169,122.684,13.485000000000014,13.498491744748076,0.7009663037815012
101.0,96.23333333333333,6062.0,137.597,124.448,13.149000000000015,13.16228719890594,0.6835074600625209
102.0,97.23333333333333,6122.0,135.753,122.812,12.940999999999988,12.954206554197622,0.6727019920763357
103.0,98.23333333333333,6182.0,137.245,124.533,12.712000000000003,12.725100105396123,0.660804670240259
104.0,99.23333333333333,6242.0,137.064,124.364,12.699999999999989,12.71321487054157,0.660187479127125
105.0,100.23333333333333,6302.0,137.107,124.256,12.850999999999999,12.86450063659384,0.6680436327070739
106.0,101.23333333333333,6362.0,135.011,122.515,12.495999999999995,12.509252782733943,0.6495958846360075
107.0,102.23333333333333,6422.0,135.371,122.753,12.61800000000001,12.631508485751064,0.6559445293498484
108.0,103.23333333333333,6482.0,136.625,124.312,12.313000000000002,12.32630522352744,0.640095558467143
109.0,104.23333333333333,6542.0,134.773,122.582,12.191000000000003,12.204295434695553,0.6337596838879758
110.0,105.23333333333333,6602.0,135.274,122.441,12.832999999999998,12.847124066812569,0.667141280790852
111.0,106.23333333333333,6662.0,134.74,122.542,12.198000000000008,12.211547297359074,0.6341362675436095
112.0,107.23333333333333,6722.0,136.233,124.15,12.082999999999998,12.096540541287682,0.6281640550744179
113.0,108.23333333333333,6782.0,136.019,124.282,11.737000000000009,11.750270306311004,0.6101825078533669
114.0,109.23333333333333,6842.0,136.18,123.93,12.25,12.263972963075682,0.6368586920792954
115.0,110.23333333333333,6902.0,135.515,124.05,11.46499999999999,11.478192334138214,0.596053707828836
116.0,111.23333333333333,6962.0,136.047,124.007,12.039999999999992,12.053974503645097,0.6259536334482717
117.0,112.23333333333333,7022.0,135.945,124.008,11.936999999999998,11.950974463466988,0.6206049205092068
118.0,113.23333333333333,7082.0,135.959,123.956,12.003,12.017171899776455,0.6240425025092634
119.0,114.23333333333333,7142.0,135.291,124.031,11.259999999999991,11.273407375806414,0.585419382303709
120.0,115.23333333333333,7202.0,135.214,123.914,11.299999999999997,11.313568139255374,0.5875048998892433
121.0,116.23333333333333,7262.0,133.585,122.274,11.311000000000007,11.324694593558256,0.5880826881113919
122.0,117.23333333333333,7322.0,133.522,122.215,11.306999999999988,11.320802958092397,0.5878805984720639
123.0,118.23333333333333,7382.0,133.829,122.392,11.437000000000012,11.451076165066876,0.5946455860055927
124.0,119.23333333333333,7442.0,133.522,122.333,11.188999999999993,11.20288296565983,0.5817571038772281
125.0,120.23333333333333,7502.0,135.02,124.143,10.87700000000001,10.890604751198056,0.5655407361613369
126.0,121.23333333333333,7562.0,135.414,124.046,11.36799999999998,11.38233270770962,0.5910757910889403
127.0,122.23333333333333,7622.0,132.981,122.118,10.863,10.876804774176124,0.5648241139587789
128.0,123.23333333333333,7682.0,132.739,122.003,10.736000000000004,10.749750878684909,0.5582263027967896
129.0,124.23333333333333,7742.0,132.953,122.126,10.826999999999998,10.840975842480297,0.5629635450675148
130.0,125.23333333333333,7802.0,132.695,121.87,10.824999999999989,10.839081651090032,0.5628651811641545
131.0,126.23333333333333,7862.0,134.401,123.827,10.574000000000012,10.587861016983895,0.5498194866782103
132.0,127.23333333333333,7922.0,132.478,121.883,10.595000000000013,10.608994634426715,0.5509169391925025
133.0,128.23333333333332,7982.0,132.527,122.027,10.499999999999986,10.51397429084347,0.5459826057658431
134.0,129.23333333333332,8042.0,134.469,123.934,10.534999999999997,10.54912636254913,0.5478080258379312
135.0,130.23333333333332,8102.0,131.963,121.903,10.059999999999988,10.073590171301609,0.5231137968383988
136.0,131.23333333333332,8162.0,134.726,123.814,10.912000000000006,10.926850415993938,0.5674229456822605
137.0,132.23333333333332,8222.0,132.161,122.02,10.141000000000005,10.15490269116896,0.52733629351287
138.0,133.23333333333332,8282.0,133.838,123.674,10.163999999999987,10.178036002614277,0.5285375886001052
139.0,134.23333333333332,8342.0,133.837,123.718,10.118999999999986,10.133075189990807,0.5262028081493968
140.0,135.23333333333332,8402.0,132.927,123.491,9.435999999999993,9.4492196515969,0.49069071552949417
141.0,136.23333333333332,8462.0,133.515,123.396,10.118999999999986,10.133277853521236,0.526213332310801
142.0,137.23333333333332,8522.0,131.728,121.799,9.929000000000002,9.94310919515775,0.5163380200115582
143.0,138.23333333333332,8582.0,133.549,123.545,10.004000000000005,10.018315953467177,0.5202434491801213
144.0,139.23333333333332,8642.0,133.29,123.652,9.637999999999991,9.651888717476604,0.5012151643854798
145.0,140.23333333333332,8702.0,133.533,123.664,9.868999999999986,9.883320429802534,0.5132332353695991
146.0,141.23333333333332,8762.0,131.524,121.826,9.698000000000008,9.712169421160494,0.5043454950068312
147.0,142.23333333333332,8822.0,132.938,123.312,9.62599999999999,9.640160625509765,0.5006061335817529
148.0,143.23333333333332,8882.0,130.846,121.665,9.180999999999997,9.194597939993516,0.4774684057025769
149.0,144.23333333333332,8942.0,132.642,123.448,9.194000000000003,9.207709270870472,0.4781492670399965
150.0,145.23333333333332,9002.0,131.107,121.633,9.474000000000004,9.488221663581127,0.4927160600418736
151.0,146.23333333333332,9062.0,132.39,123.415,8.97499999999998,8.988562487100756,0.4667691429558054
152.0,147.23333333333332,9122.0,132.318,123.005,9.313000000000017,9.3271665238306,0.4843525903927653
153.0,148.23333333333332,9182.0,132.037,123.56,8.477000000000004,8.489979736966761,0.44087812386275604
154.0,149.23333333333332,9242.0,131.882,123.367,8.515,8.528123202272168,0.4428588847058296
155.0,150.23333333333332,9302.0,129.695,120.995,8.699999999999989,8.7134954562767,0.45248512341236946
156.0,151.23333333333332,9362.0,131.763,123.056,8.707000000000008,8.72059352018899,0.4528537204170339
157.0,152.23333333333332,9422.0,131.495,123.12,8.375,8.388159077172597,0.43559065524076884
158.0,153.23333333333332,9482.0,131.618,123.328,8.289999999999992,8.30310855302987,0.4311740468766379
159.0,154.23333333333332,9542.0,129.264,121.523,7.741000000000014,7.753317980199182,0.40262384490011077
160.0,155.23333333333332,9602.0,129.31,121.213,8.097000000000008,8.109965569689772,0.421144280166893
161.0,156.23333333333332,9662.0,128.861,121.25,7.61099999999999,7.623263579532479,0.39587021981000936
162.0,157.23333333333332,9722.0,129.058,121.325,7.73299999999999,7.745537612724321,0.4022198163957382
163.0,158.23333333333332,9782.0,128.979,121.254,7.7250000000000085,7.737602017854368,0.40180772705201856
164.0,159.23333333333332,9842.0,129.013,121.34,7.673000000000002,7.685594044293578,0.39910699294902097
165.0,160.23333333333332,9902.0,128.529,121.365,7.1640000000000015,7.175830357360812,0.372635356399677
166.0,161.23333333333332,9962.0,129.716,122.926,6.790000000000006,6.801280760440734,0.3531852836433582
167.0,162.23333333333332,10022.0,129.66,122.738,6.921999999999997,6.9335693977583,0.3600549309259048
168.0,163.23333333333332,10082.0,128.436,121.128,7.308000000000007,7.320287758827341,0.3801369182537464
169.0,164.23333333333332,10142.0,129.669,122.979,6.690000000000012,6.701315659038679,0.34799417274282335
170.0,165.23333333333332,10202.0,129.727,122.835,6.89200000000001,6.9037263645858085,0.3585052051452679
171.0,166.23333333333332,10262.0,129.277,122.724,6.552999999999983,6.564215216277033,0.3408746521010576
172.0,167.23333333333332,10322.0,129.09,122.706,6.384,6.394989928629238,0.3320869129497566
173.0,168.23333333333332,10382.0,128.911,122.82,6.091000000000008,6.101546550135478,0.3168486237926027
174.0,169.23333333333332,10442.0,126.863,120.901,5.962000000000003,5.972382910512541,0.31014125523902464
175.0,170.23333333333332,10502.0,126.96,120.94,6.019999999999996,6.030544223504589,0.31316152753033283
176.0,171.23333333333332,10562.0,128.082,122.791,5.290999999999997,5.30032035951047,0.27524156339240197
177.0,172.23333333333332,10622.0,128.263,122.829,5.434000000000012,5.443626697113667,0.2826833513845501
178.0,173.23333333333332,10682.0,125.81,120.997,4.813000000000002,4.821574769280637,0.2503806727698873
179.0,174.23333333333332,10742.0,125.805,121.016,4.7890000000000015,4.797579986797257,0.24913464215361783
180.0,175.23333333333332,10802.0,126.795,122.701,4.094000000000008,4.101375836261168,0.21298129559410336
181.0,176.23333333333332,10862.0,125.279,120.901,4.378,4.385931355711593,0.22775804506075367
182.0,177.23333333333332,10922.0,126.753,122.748,4.0049999999999955,4.012295737106896,0.2083554344960326
183.0,178.23333333333332,10982.0,126.201,122.921,3.279999999999987,3.2860078955477596,0.17063986497862843
184.0,179.23333333333332,11042.0,123.834,120.989,2.844999999999999,2.850239618971181,0.14801075322946095
185.0,180.23333333333332,11102.0,125.856,122.578,3.2779999999999916,3.2840699129382696,0.17053922703090396
186.0,181.23333333333332,11162.0,125.515,122.661,2.853999999999999,2.8593133799114696,0.14848194666262252
187.0,182.23333333333332,11222.0,125.502,122.417,3.0849999999999937,3.0907743473320566,0.16050153684132712
188.0,183.23333333333332,11282.0,125.561,122.528,3.0330000000000013,3.038707403278062,0.15779774044593156
189.0,184.23333333333332,11342.0,125.531,122.656,2.875,2.880438888130262,0.1495789780711422
190.0,185.23333333333332,11402.0,124.987,122.264,2.722999999999999,2.728178618129321,0.1416722192499681
191.0,186.23333333333332,11462.0,125.43,122.762,2.6680000000000064,2.6731007496652666,0.13881206786361536
192.0,187.23333333333332,11522.0,122.997,120.754,2.242999999999995,2.247310696944816,0.11670111761182078
193.0,188.23333333333332,11582.0,124.678,122.357,2.320999999999998,2.325483855528757,0.12076058966719543
194.0,189.23333333333332,11642.0,122.583,120.272,2.310999999999993,2.315487691653407,0.12024149655840981
195.0,190.23333333333332,11702.0,123.201,120.888,2.312999999999988,2.3175147504510667,0.12034676016413791
