"Frame","Time (aligned)","Time [ s]","Intensity Ch3-T2","background","Intensity (bg-subst)","bleach-Corrected","Normalized"
1.0,-5.3,0.0,135.055,125.824,9.231000000000009,9.23109231046156,1.0206111958102577
2.0,-4.266666666666667,62.0,131.974,123.095,8.87899999999999,8.879177581775803,0.9817026788127438
3.0,-3.2666666666666666,122.0,133.681,124.521,9.16000000000001,9.160274804122052,1.0127814463723115
4.0,-2.2666666666666666,182.0,131.22,122.403,8.816999999999993,8.817352687053686,0.9748671735863825
5.0,-0.3333333333333333,298.0,134.179,125.044,9.135000000000005,9.135456761418945,1.010037505418305
6.0,0.7666666666666668,364.0,141.134,131.728,9.405999999999977,9.406564376931117,1.0400117986390074
7.0,1.7666666666666668,424.0,141.274,131.653,9.62100000000001,9.62167349357201,1.0637947666108196
8.0,2.7666666666666666,484.0,140.351,131.306,9.044999999999987,9.045723628944758,1.0001164000324896
9.0,3.766666666666666,544.0,139.911,131.285,8.626000000000005,8.626776374936354,0.9537966099670859
10.0,4.766666666666667,604.0,139.66,130.722,8.937999999999988,8.938893844691478,0.9883050487657141
11.0,5.766666666666667,664.0,137.516,128.523,8.992999999999995,8.99398928440964,0.9943965296786196
12.0,6.766666666666667,724.0,136.967,128.17,8.797000000000025,8.798055703340959,0.9727336538511008
13.0,7.766666666666667,784.0,137.197,128.21,8.986999999999995,8.988168385943435,0.9937529575048747
14.0,8.766666666666666,844.0,136.756,128.267,8.489000000000004,8.490188543196087,0.9386951392421558
15.0,9.766666666666666,904.0,136.313,127.83,8.48299999999999,8.484272545438511,0.9380410526679236
16.0,10.766666666666666,964.0,136.266,127.596,8.669999999999987,8.671387310981906,0.9587288995870334
17.0,11.766666666666666,1024.0,138.11,129.866,8.244,8.24540159913255,0.9116309211304714
18.0,12.766666666666666,1084.0,138.12,129.618,8.50200000000001,8.503530497740673,0.9401702569989963
19.0,13.766666666666666,1144.0,134.911,127.166,7.7450000000000045,7.746471689806109,0.8564680612806057
20.0,14.766666666666666,1204.0,135.086,127.07,8.01600000000002,8.017603360330709,0.8864450140798469
21.0,15.766666666666667,1264.0,134.458,127.179,7.278999999999996,7.280528750513182,0.8049523181315349
22.0,16.76666666666667,1324.0,136.358,129.341,7.016999999999996,7.018543909823849,0.7759866602714056
23.0,17.76666666666667,1384.0,133.261,126.798,6.462999999999994,6.464486660959451,0.7147287925898115
24.0,18.76666666666667,1444.0,132.776,126.917,5.859000000000009,5.860406328752709,0.6479402556015866
25.0,19.76666666666667,1504.0,131.923,126.774,5.149000000000001,5.150287410919661,0.5694278441206927
26.0,20.76666666666667,1564.0,132.038,126.579,5.459000000000017,5.460419524530209,0.603716777291961
27.0,21.76666666666667,1624.0,130.867,127.0,3.8669999999999902,3.8680442309648266,0.42766003363848815
28.0,22.76666666666667,1684.0,130.116,126.908,3.2080000000000126,3.2088983657653505,0.35478332229499737
29.0,23.76666666666667,1744.0,131.953,129.144,2.8089999999999975,2.8098147281298664,0.3106597001994999
30.0,24.76666666666667,1804.0,131.267,129.121,2.1459999999999866,2.1466438965796444,0.23733797914511334
31.0,25.76666666666667,1864.0,131.606,129.199,2.4069999999999823,2.407746285668284,0.26620607108854094
32.0,26.76666666666667,1924.0,128.686,126.816,1.8700000000000045,1.870598495754218,0.2068177528101355
33.0,27.76666666666667,1984.0,130.311,128.83,1.4809999999999945,1.4814888106493156,0.16379687427702824
34.0,28.76666666666667,2044.0,130.273,129.01,1.2630000000000052,1.2634294930096794,0.13968772516998934
35.0,29.76666666666667,2104.0,127.831,126.461,1.3700000000000045,1.3704795839222952,0.15152343405723573
36.0,30.76666666666667,2164.0,127.254,126.632,0.6219999999999999,0.622223960310437,0.06879453902487045
37.0,31.76666666666667,2224.0,129.52,128.13,1.3900000000000148,1.3905143951572505,0.15373852973222613
38.0,32.766666666666666,2284.0,129.214,128.24,0.9739999999999895,0.9743701903316979,0.10772865135248326
39.0,33.766666666666666,2344.0,129.256,128.34,0.9159999999999968,0.9163573096708537,0.10131461133291145
40.0,34.766666666666666,2404.0,129.86,128.241,1.6189999999999998,1.6196477295372709,0.1790720480783222
41.0,35.766666666666666,2464.0,126.886,125.988,0.8979999999999961,0.8983682554872123,0.09932569935105914
42.0,36.766666666666666,2524.0,129.388,128.653,0.7350000000000136,0.7353087648360904,0.08129745998949957
43.0,37.766666666666666,2584.0,126.681,125.852,0.8289999999999935,0.82935654665203,0.09169560311647137
44.0,38.766666666666666,2644.0,126.675,125.739,0.9359999999999928,0.9364119306180829,0.10353189721610827
45.0,39.766666666666666,2704.0,129.019,128.125,0.8940000000000055,0.8944023905310846,0.09888722402883661
46.0,40.766666666666666,2764.0,128.475,127.804,0.6709999999999923,0.671308731002679,0.07422146628628536
47.0,41.766666666666666,2824.0,126.116,125.548,0.5679999999999978,0.5682670227454275,0.06282893357771506
48.0,42.766666666666666,2884.0,128.502,127.465,1.0370000000000061,1.0374978794815224,0.11470819658343319
49.0,43.766666666666666,2944.0,125.867,125.465,0.402000000000001,0.4021970282679845,0.044467845859012436
50.0,44.766666666666666,3004.0,NA,NA,0.0,0.0,0.0
51.0,45.766666666666666,3064.0,NA,NA,0.0,0.0,0.0
52.0,46.766666666666666,3124.0,NA,NA,0.0,0.0,0.0
53.0,47.766666666666666,3184.0,NA,NA,0.0,0.0,0.0
54.0,48.766666666666666,3244.0,NA,NA,0.0,0.0,0.0
55.0,49.766666666666666,3304.0,NA,NA,0.0,0.0,0.0
56.0,50.766666666666666,3364.0,NA,NA,0.0,0.0,0.0
57.0,51.766666666666666,3424.0,NA,NA,0.0,0.0,0.0
58.0,52.766666666666666,3484.0,NA,NA,0.0,0.0,0.0
59.0,53.766666666666666,3544.0,NA,NA,0.0,0.0,0.0
60.0,54.766666666666666,3604.0,NA,NA,0.0,0.0,0.0
61.0,55.766666666666666,3664.0,NA,NA,0.0,0.0,0.0
62.0,56.766666666666666,3724.0,NA,NA,0.0,0.0,0.0
63.0,57.766666666666666,3784.0,NA,NA,0.0,0.0,0.0
64.0,58.766666666666666,3844.0,NA,NA,0.0,0.0,0.0
65.0,59.766666666666666,3904.0,NA,NA,0.0,0.0,0.0
66.0,60.766666666666666,3964.0,NA,NA,0.0,0.0,0.0
67.0,61.766666666666666,4024.0,NA,NA,0.0,0.0,0.0
68.0,62.766666666666666,4084.0,NA,NA,0.0,0.0,0.0
69.0,63.76666666666666,4144.0,NA,NA,0.0,0.0,0.0
70.0,64.76666666666667,4204.0,NA,NA,0.0,0.0,0.0
71.0,65.76666666666667,4264.0,NA,NA,0.0,0.0,0.0
72.0,66.76666666666667,4324.0,NA,NA,0.0,0.0,0.0
73.0,67.76666666666667,4384.0,NA,NA,0.0,0.0,0.0
74.0,68.76666666666667,4444.0,NA,NA,0.0,0.0,0.0
75.0,69.76666666666667,4504.0,NA,NA,0.0,0.0,0.0
76.0,70.76666666666667,4564.0,NA,NA,0.0,0.0,0.0
77.0,71.76666666666667,4624.0,NA,NA,0.0,0.0,0.0
78.0,72.76666666666667,4684.0,NA,NA,0.0,0.0,0.0
79.0,73.76666666666667,4744.0,NA,NA,0.0,0.0,0.0
80.0,74.76666666666667,4804.0,NA,NA,0.0,0.0,0.0
81.0,75.76666666666667,4864.0,NA,NA,0.0,0.0,0.0
82.0,76.76666666666667,4924.0,NA,NA,0.0,0.0,0.0
83.0,77.76666666666667,4984.0,NA,NA,0.0,0.0,0.0
84.0,78.76666666666667,5044.0,NA,NA,0.0,0.0,0.0
85.0,79.76666666666667,5104.0,NA,NA,0.0,0.0,0.0
86.0,80.76666666666667,5164.0,NA,NA,0.0,0.0,0.0
87.0,81.76666666666667,5224.0,NA,NA,0.0,0.0,0.0
88.0,82.76666666666667,5284.0,NA,NA,0.0,0.0,0.0
89.0,83.76666666666667,5344.0,NA,NA,0.0,0.0,0.0
90.0,84.76666666666667,5404.0,NA,NA,0.0,0.0,0.0
91.0,85.76666666666667,5464.0,NA,NA,0.0,0.0,0.0
92.0,86.76666666666667,5524.0,NA,NA,0.0,0.0,0.0
93.0,87.76666666666667,5584.0,NA,NA,0.0,0.0,0.0
94.0,88.76666666666667,5644.0,NA,NA,0.0,0.0,0.0
95.0,89.76666666666667,5704.0,NA,NA,0.0,0.0,0.0
96.0,90.76666666666667,5764.0,NA,NA,0.0,0.0,0.0
97.0,91.76666666666667,5824.0,NA,NA,0.0,0.0,0.0
98.0,92.76666666666667,5884.0,NA,NA,0.0,0.0,0.0
99.0,93.76666666666667,5944.0,NA,NA,0.0,0.0,0.0
100.0,94.76666666666667,6004.0,NA,NA,0.0,0.0,0.0
101.0,95.76666666666667,6064.0,NA,NA,0.0,0.0,0.0
102.0,96.76666666666667,6124.0,NA,NA,0.0,0.0,0.0
103.0,97.76666666666667,6184.0,NA,NA,0.0,0.0,0.0
104.0,98.76666666666667,6244.0,NA,NA,0.0,0.0,0.0
105.0,99.76666666666667,6304.0,NA,NA,0.0,0.0,0.0
106.0,100.76666666666667,6364.0,NA,NA,0.0,0.0,0.0
107.0,101.76666666666667,6424.0,NA,NA,0.0,0.0,0.0
108.0,102.76666666666667,6484.0,NA,NA,0.0,0.0,0.0
109.0,103.76666666666667,6544.0,NA,NA,0.0,0.0,0.0
110.0,104.76666666666667,6604.0,NA,NA,0.0,0.0,0.0
111.0,105.76666666666667,6664.0,NA,NA,0.0,0.0,0.0
112.0,106.76666666666667,6724.0,NA,NA,0.0,0.0,0.0
113.0,107.76666666666667,6784.0,NA,NA,0.0,0.0,0.0
114.0,108.76666666666667,6844.0,NA,NA,0.0,0.0,0.0
115.0,109.76666666666667,6904.0,NA,NA,0.0,0.0,0.0
116.0,110.76666666666667,6964.0,NA,NA,0.0,0.0,0.0
117.0,111.76666666666667,7024.0,NA,NA,0.0,0.0,0.0
118.0,112.76666666666667,7084.0,NA,NA,0.0,0.0,0.0
119.0,113.76666666666667,7144.0,NA,NA,0.0,0.0,0.0
120.0,114.76666666666667,7204.0,NA,NA,0.0,0.0,0.0
121.0,115.76666666666667,7264.0,NA,NA,0.0,0.0,0.0
122.0,116.76666666666667,7324.0,NA,NA,0.0,0.0,0.0
123.0,117.76666666666667,7384.0,NA,NA,0.0,0.0,0.0
124.0,118.76666666666667,7444.0,NA,NA,0.0,0.0,0.0
125.0,119.76666666666667,7504.0,NA,NA,0.0,0.0,0.0
126.0,120.76666666666667,7564.0,NA,NA,0.0,0.0,0.0
127.0,121.76666666666667,7624.0,NA,NA,0.0,0.0,0.0
128.0,122.76666666666667,7684.0,NA,NA,0.0,0.0,0.0
129.0,123.76666666666667,7744.0,NA,NA,0.0,0.0,0.0
130.0,124.76666666666667,7804.0,NA,NA,0.0,0.0,0.0
131.0,125.76666666666667,7864.0,NA,NA,0.0,0.0,0.0
132.0,126.76666666666667,7924.0,NA,NA,0.0,0.0,0.0
133.0,127.76666666666667,7984.0,NA,NA,0.0,0.0,0.0
134.0,128.76666666666665,8044.0,NA,NA,0.0,0.0,0.0
135.0,129.76666666666665,8104.0,NA,NA,0.0,0.0,0.0
136.0,130.76666666666665,8164.0,NA,NA,0.0,0.0,0.0
137.0,131.76666666666665,8224.0,NA,NA,0.0,0.0,0.0
138.0,132.76666666666665,8284.0,NA,NA,0.0,0.0,0.0
139.0,133.76666666666665,8344.0,NA,NA,0.0,0.0,0.0
140.0,134.76666666666665,8404.0,NA,NA,0.0,0.0,0.0
141.0,135.76666666666665,8464.0,NA,NA,0.0,0.0,0.0
142.0,136.76666666666665,8524.0,NA,NA,0.0,0.0,0.0
143.0,137.76666666666665,8584.0,NA,NA,0.0,0.0,0.0
144.0,138.76666666666665,8644.0,NA,NA,0.0,0.0,0.0
145.0,139.76666666666665,8704.0,NA,NA,0.0,0.0,0.0
146.0,140.76666666666665,8764.0,NA,NA,0.0,0.0,0.0
147.0,141.76666666666665,8824.0,NA,NA,0.0,0.0,0.0
148.0,142.76666666666665,8884.0,NA,NA,0.0,0.0,0.0
149.0,143.76666666666665,8944.0,NA,NA,0.0,0.0,0.0
150.0,144.76666666666665,9004.0,NA,NA,0.0,0.0,0.0
151.0,145.76666666666665,9064.0,NA,NA,0.0,0.0,0.0
152.0,146.76666666666665,9124.0,NA,NA,0.0,0.0,0.0
153.0,147.76666666666665,9184.0,NA,NA,0.0,0.0,0.0
154.0,148.76666666666665,9244.0,NA,NA,0.0,0.0,0.0
155.0,149.76666666666665,9304.0,NA,NA,0.0,0.0,0.0
156.0,150.76666666666665,9364.0,NA,NA,0.0,0.0,0.0
157.0,151.76666666666665,9424.0,NA,NA,0.0,0.0,0.0
158.0,152.76666666666665,9484.0,NA,NA,0.0,0.0,0.0
159.0,153.76666666666665,9544.0,NA,NA,0.0,0.0,0.0
160.0,154.76666666666665,9604.0,NA,NA,0.0,0.0,0.0
161.0,155.76666666666665,9664.0,NA,NA,0.0,0.0,0.0
162.0,156.76666666666665,9724.0,NA,NA,0.0,0.0,0.0
163.0,157.76666666666665,9784.0,NA,NA,0.0,0.0,0.0
164.0,158.76666666666665,9844.0,NA,NA,0.0,0.0,0.0
165.0,159.76666666666665,9904.0,NA,NA,0.0,0.0,0.0
166.0,160.76666666666665,9964.0,NA,NA,0.0,0.0,0.0
167.0,161.76666666666665,10024.0,NA,NA,0.0,0.0,0.0
168.0,162.76666666666665,10084.0,NA,NA,0.0,0.0,0.0
169.0,163.76666666666665,10144.0,NA,NA,0.0,0.0,0.0
170.0,164.76666666666665,10204.0,NA,NA,0.0,0.0,0.0
171.0,165.76666666666665,10264.0,NA,NA,0.0,0.0,0.0
172.0,166.76666666666665,10324.0,NA,NA,0.0,0.0,0.0
173.0,167.76666666666665,10384.0,NA,NA,0.0,0.0,0.0
174.0,168.76666666666665,10444.0,NA,NA,0.0,0.0,0.0
175.0,169.76666666666665,10504.0,NA,NA,0.0,0.0,0.0
176.0,170.76666666666665,10564.0,NA,NA,0.0,0.0,0.0
177.0,171.76666666666665,10624.0,NA,NA,0.0,0.0,0.0
178.0,172.76666666666665,10684.0,NA,NA,0.0,0.0,0.0
179.0,173.76666666666665,10744.0,NA,NA,0.0,0.0,0.0
180.0,174.76666666666665,10804.0,NA,NA,0.0,0.0,0.0
181.0,175.76666666666665,10864.0,NA,NA,0.0,0.0,0.0
182.0,176.76666666666665,10924.0,NA,NA,0.0,0.0,0.0
183.0,177.76666666666665,10984.0,NA,NA,0.0,0.0,0.0
184.0,178.76666666666665,11044.0,NA,NA,0.0,0.0,0.0
185.0,179.76666666666665,11104.0,NA,NA,0.0,0.0,0.0
186.0,180.76666666666665,11164.0,NA,NA,0.0,0.0,0.0
187.0,181.76666666666665,11224.0,NA,NA,0.0,0.0,0.0
188.0,182.76666666666665,11284.0,NA,NA,0.0,0.0,0.0
189.0,183.76666666666665,11344.0,NA,NA,0.0,0.0,0.0
190.0,184.76666666666665,11404.0,NA,NA,0.0,0.0,0.0
191.0,185.76666666666665,11464.0,NA,NA,0.0,0.0,0.0
192.0,186.76666666666665,11524.0,NA,NA,0.0,0.0,0.0
193.0,187.76666666666665,11584.0,NA,NA,0.0,0.0,0.0
194.0,188.76666666666665,11644.0,NA,NA,0.0,0.0,0.0
195.0,189.76666666666665,11704.0,NA,NA,0.0,0.0,0.0
196.0,190.76666666666665,11764.0,NA,NA,0.0,0.0,0.0
197.0,191.76666666666665,11824.0,NA,NA,0.0,0.0,0.0
198.0,192.76666666666665,11884.0,NA,NA,0.0,0.0,0.0
199.0,193.76666666666665,11944.0,NA,NA,0.0,0.0,0.0
200.0,194.76666666666665,12004.0,NA,NA,0.0,0.0,0.0
201.0,195.76666666666665,12064.0,NA,NA,0.0,0.0,0.0
202.0,196.76666666666665,12124.0,NA,NA,0.0,0.0,0.0
203.0,197.76666666666665,12184.0,NA,NA,0.0,0.0,0.0
204.0,198.76666666666665,12244.0,NA,NA,0.0,0.0,0.0
205.0,199.76666666666665,12304.0,NA,NA,0.0,0.0,0.0
206.0,200.76666666666665,12364.0,NA,NA,0.0,0.0,0.0
207.0,201.76666666666665,12424.0,NA,NA,0.0,0.0,0.0
208.0,202.76666666666665,12484.0,NA,NA,0.0,0.0,0.0
209.0,203.76666666666665,12544.0,NA,NA,0.0,0.0,0.0
210.0,204.76666666666665,12604.0,NA,NA,0.0,0.0,0.0
211.0,205.76666666666665,12664.0,NA,NA,0.0,0.0,0.0
212.0,206.76666666666665,12724.0,NA,NA,0.0,0.0,0.0
213.0,207.76666666666665,12784.0,NA,NA,0.0,0.0,0.0
214.0,208.76666666666665,12844.0,NA,NA,0.0,0.0,0.0
215.0,209.76666666666665,12904.0,NA,NA,0.0,0.0,0.0
216.0,210.76666666666665,12964.0,NA,NA,0.0,0.0,0.0
217.0,211.76666666666665,13024.0,NA,NA,0.0,0.0,0.0
218.0,212.76666666666665,13084.0,NA,NA,0.0,0.0,0.0
219.0,213.76666666666665,13144.0,NA,NA,0.0,0.0,0.0
220.0,214.76666666666665,13204.0,NA,NA,0.0,0.0,0.0
221.0,215.76666666666665,13264.0,NA,NA,0.0,0.0,0.0
222.0,216.76666666666665,13324.0,NA,NA,0.0,0.0,0.0
223.0,217.76666666666665,13384.0,NA,NA,0.0,0.0,0.0
224.0,218.76666666666665,13444.0,NA,NA,0.0,0.0,0.0
225.0,219.76666666666665,13504.0,NA,NA,0.0,0.0,0.0
226.0,220.76666666666665,13564.0,NA,NA,0.0,0.0,0.0
227.0,221.76666666666665,13624.0,NA,NA,0.0,0.0,0.0
228.0,222.76666666666665,13684.0,NA,NA,0.0,0.0,0.0
229.0,223.76666666666665,13744.0,NA,NA,0.0,0.0,0.0
230.0,224.76666666666665,13804.0,NA,NA,0.0,0.0,0.0
231.0,225.76666666666665,13864.0,NA,NA,0.0,0.0,0.0
232.0,226.76666666666665,13924.0,NA,NA,0.0,0.0,0.0
233.0,227.76666666666665,13984.0,NA,NA,0.0,0.0,0.0
234.0,228.76666666666665,14044.0,NA,NA,0.0,0.0,0.0
235.0,229.76666666666665,14104.0,NA,NA,0.0,0.0,0.0
236.0,230.76666666666665,14164.0,NA,NA,0.0,0.0,0.0
237.0,231.76666666666665,14224.0,NA,NA,0.0,0.0,0.0
238.0,232.76666666666665,14284.0,NA,NA,0.0,0.0,0.0
239.0,233.76666666666665,14344.0,NA,NA,0.0,0.0,0.0
240.0,234.76666666666665,14404.0,NA,NA,0.0,0.0,0.0
