"Frame","Time (aligned)","Time [ s]","Intensity Ch3-T2","background","Intensity (bg-subst)","bleach-Corrected","Normalized"
1.0,-12.333333333333334,0.0,258.341,254.182,4.15900000000002,4.15900000000002,0.9326431279324183
2.0,-9.333333333333334,180.0,257.039,253.082,3.9569999999999936,3.9701416891314003,0.8902922248825165
3.0,-6.333333333333333,360.0,253.608,248.681,4.9269999999999925,4.959541097507837,1.1121620395020595
4.0,-3.3333333333333335,540.0,249.418,244.511,4.907000000000011,4.955337875038549,1.1112194796195993
5.0,-0.3333333333333333,720.0,250.378,246.18,4.197999999999979,4.252825127665701,0.9536831280634062
6.0,3.2166666666666663,933.0,269.271,264.828,4.4430000000000405,4.515118582328211,1.0125016392422093
7.0,6.216666666666667,1113.0,264.649,259.083,5.565999999999974,5.673799283961239,1.272332270126064
8.0,9.216666666666667,1293.0,263.032,257.527,5.5049999999999955,5.628678593358713,1.262214092194347
9.0,12.216666666666667,1473.0,258.866,253.967,4.8989999999999725,5.0240696124281214,1.1266323631366082
10.0,15.216666666666667,1653.0,257.466,251.946,5.52000000000001,5.677633632188807,1.2731921110793079
11.0,18.21666666666667,1833.0,257.203,252.533,4.6699999999999875,4.817331315204377,1.0802719274101895
12.0,21.21666666666667,2013.0,255.166,250.021,5.14500000000001,5.322527388832788,1.1935606137116985
13.0,24.21666666666667,2193.0,256.363,251.632,4.7309999999999945,4.908063517820965,1.100618348485576
14.0,27.21666666666667,2373.0,254.363,249.509,4.854000000000013,5.04967905265324,1.1323752023855027
15.0,30.21666666666667,2553.0,253.242,248.361,4.881,5.0916897194661965,1.141795966920959
16.0,33.21666666666666,2733.0,255.698,249.926,5.77200000000002,6.037416906666955,1.3538724184818243
17.0,36.21666666666666,2913.0,255.607,251.245,4.361999999999995,4.574726010764361,1.0258684241675997
18.0,39.21666666666666,3093.0,252.421,246.644,5.776999999999987,6.0746253202555405,1.3622162923059793
19.0,42.21666666666666,3273.0,252.554,248.012,4.542000000000002,4.788343877433968,1.0737715824635823
20.0,45.21666666666666,3453.0,253.051,248.059,4.99199999999999,5.276154155214042,1.1831615568099125
21.0,48.21666666666666,3633.0,253.109,247.939,5.170000000000016,5.477999801983261,1.2284248305205125
22.0,51.21666666666666,3813.0,250.731,245.9,4.830999999999989,5.1314629221436885,1.1507149869144733
23.0,54.21666666666666,3993.0,251.938,246.91,5.027999999999992,5.353730157444612,1.200557739876229
24.0,57.21666666666666,4173.0,252.441,246.825,5.616000000000014,5.994182512890304,1.3441772368886244
25.0,60.21666666666666,4353.0,251.625,246.248,5.3770000000000095,5.752669130989563,1.2900185939616127
26.0,63.21666666666666,4533.0,248.527,242.977,5.549999999999983,5.951602484539684,1.3346287947562916
27.0,66.21666666666667,4713.0,247.664,241.832,5.831999999999994,6.2683802404877,1.405665245145031
28.0,69.21666666666667,4893.0,248.855,243.726,5.128999999999991,5.525262833893641,1.2390234219887661
29.0,72.21666666666667,5073.0,246.501,240.784,5.717000000000013,6.172436477756331,1.3841501475303668
30.0,75.21666666666667,5253.0,245.765,240.569,5.195999999999998,5.622270894903089,1.2607771852622718
31.0,78.21666666666667,5433.0,245.162,239.317,5.844999999999999,6.338223425210676,1.4213273673534461
32.0,81.21666666666667,5613.0,244.532,238.775,5.757000000000005,6.256134802182066,1.4029192427684334
33.0,84.21666666666667,5793.0,245.633,240.582,5.051000000000016,5.500481771832648,1.233466344029148
34.0,87.21666666666667,5973.0,243.161,237.764,5.396999999999991,5.889468990233013,1.3206955472257447
35.0,90.21666666666667,6153.0,244.551,239.522,5.028999999999996,5.499114926377671,1.2331598330840818
36.0,93.21666666666667,6333.0,242.014,236.4,5.614000000000004,6.151178020296552,1.3793830029618872
37.0,96.21666666666667,6513.0,241.731,236.167,5.563999999999993,6.108509179769796,1.36981464496859
38.0,99.21666666666667,6693.0,243.059,237.728,5.330999999999989,5.864172164823057,1.3150228109004016
39.0,102.21666666666667,6873.0,240.72,235.579,5.140999999999991,5.666089797772459,1.2706034412455984
40.0,105.21666666666667,7053.0,242.748,237.399,5.3489999999999895,5.906556526892493,1.324527375463003
41.0,108.21666666666667,7233.0,242.569,236.074,6.494999999999976,7.185469222219884,1.611319666043097
42.0,111.21666666666667,7413.0,241.756,235.924,5.831999999999994,6.463923261549585,1.4495151741684769
43.0,114.21666666666667,7593.0,239.705,234.184,5.521000000000015,6.130385709548091,1.3747203903787213
44.0,117.21666666666667,7773.0,239.506,233.438,6.068000000000012,6.749877133582124,1.513639462135972
45.0,120.21666666666667,7953.0,241.054,235.044,6.009999999999991,6.6972122259222555,1.5018295164249424
46.0,123.21666666666667,8133.0,238.36,232.432,5.928000000000026,6.617383631627273,1.483928196424529
47.0,126.21666666666667,8313.0,239.78,233.992,5.788000000000011,6.472239563692871,1.4513800796851264
48.0,129.21666666666667,8493.0,237.298,231.202,6.096000000000004,6.828236524899661,1.5312113178275488
49.0,132.21666666666667,8673.0,238.747,233.28,5.467000000000013,6.133946403112684,1.375518865104302
50.0,135.21666666666667,8853.0,238.807,233.006,5.800999999999988,6.519450840840248,1.461967065304846
51.0,138.21666666666667,9033.0,238.566,232.513,6.052999999999997,6.813749791693089,1.5279627118714778
52.0,141.21666666666667,9213.0,236.308,229.817,6.4909999999999854,7.318545131626006,1.641161534857951
53.0,144.21666666666667,9393.0,237.752,230.62,7.132000000000005,8.05401742260135,1.8060889640387305
54.0,147.21666666666667,9573.0,237.333,230.655,6.677999999999997,7.553119186615568,1.693764054785158
55.0,150.21666666666667,9753.0,236.805,230.505,6.300000000000011,7.136576657237202,1.600355656728818
56.0,153.21666666666667,9933.0,236.264,230.185,6.079000000000008,6.896709285817078,1.5465661266566393
57.0,156.21666666666667,10113.0,236.173,230.579,5.593999999999994,6.35599743606902,1.4253131353464326
58.0,159.21666666666667,10293.0,235.899,229.296,6.603000000000009,7.513551397292959,1.6848910981130714
59.0,162.21666666666667,10473.0,235.615,229.929,5.686000000000007,6.479551144949131,1.4530196795920678
60.0,165.21666666666667,10653.0,232.93,226.974,5.956000000000017,6.797017643228842,1.5242105783584396
61.0,168.21666666666667,10833.0,234.478,228.001,6.477000000000004,7.402099730557101,1.659898400090034
62.0,171.21666666666667,11013.0,234.005,227.767,6.2379999999999995,7.1389700976457195,1.6008923784766227
63.0,174.21666666666667,11193.0,231.376,224.982,6.3940000000000055,7.327637129558931,1.6432003878012829
64.0,177.21666666666667,11373.0,233.733,227.041,6.692000000000007,7.679633568378037,1.7221345209393741
65.0,180.21666666666667,11553.0,233.921,226.826,7.094999999999999,8.153094204798004,1.8283066317601457
66.0,183.21666666666667,11733.0,233.358,227.11,6.2479999999999905,7.189339014689716,1.6121874552600997
67.0,186.21666666666667,11913.0,230.414,224.032,6.381999999999977,7.353179119378256,1.6489281015013821
68.0,189.21666666666667,12093.0,231.98,225.411,6.568999999999988,7.578454771590009,1.6994454828252061
69.0,192.21666666666667,12273.0,232.308,225.901,6.406999999999982,7.401026572628293,1.659657747681405
70.0,195.21666666666667,12453.0,230.037,223.073,6.963999999999999,8.054614329430802,1.8062228185836944
71.0,198.21666666666667,12633.0,229.403,222.896,6.507000000000005,7.53543935216983,1.6897994055668843
72.0,201.21666666666667,12813.0,229.772,223.119,6.652999999999992,7.7140107368663555,1.7298434966422847
73.0,204.21666666666667,12993.0,231.15,224.726,6.424000000000007,7.457555123775092,1.6723341037186825
74.0,207.21666666666667,13173.0,229.057,222.197,6.859999999999985,7.973273849012503,1.7879824627085206
75.0,210.21666666666667,13353.0,228.76,222.453,6.306999999999988,7.339230693359543,1.6458002092984905
76.0,213.21666666666667,13533.0,228.317,222.176,6.1410000000000196,7.154438959594169,1.6043612238224165
77.0,216.21666666666667,13713.0,232.326,225.291,7.034999999999997,8.2054633938463,1.8400502634700007
78.0,219.21666666666667,13893.0,228.762,222.171,6.591000000000008,7.696383635764918,1.725890672716431
79.0,222.21666666666667,14073.0,228.959,222.252,6.706999999999994,7.840685927485651,1.7582500236946084
80.0,225.21666666666667,14253.0,228.341,221.334,7.007000000000005,8.20053720207591,1.8389455799158938
81.0,228.21666666666667,14433.0,229.872,223.17,6.702000000000027,7.852233916188925,1.760839625114553
82.0,231.21666666666667,14613.0,229.391,222.573,6.817999999999984,7.996845613948024,1.7932683594578238
83.0,234.21666666666667,14793.0,226.963,220.071,6.891999999999996,8.09234307477965,1.814683375225944
84.0,237.21666666666667,14973.0,228.899,222.023,6.876000000000005,8.082145843729412,1.8123966771103046
85.0,240.21666666666667,15153.0,228.682,221.882,6.799999999999983,8.001218299432873,1.7942489209072237
86.0,243.21666666666667,15333.0,226.054,219.493,6.561000000000007,7.728021624862276,1.7329853957540005
87.0,246.21666666666667,15513.0,228.366,221.438,6.928000000000026,8.168682996995207,1.8318023711002487
88.0,249.21666666666667,15693.0,226.329,219.252,7.076999999999998,8.352839094687148,1.8730988171159348
89.0,252.21666666666667,15873.0,227.839,220.735,7.103999999999985,8.393123340795844,1.882132437047941
90.0,255.21666666666667,16053.0,227.998,220.742,7.256,8.58121389707976,1.9243111734622662
91.0,258.2166666666667,16233.0,227.3,219.971,7.329000000000008,8.676051753906847,1.9455782750341877
92.0,261.2166666666667,16413.0,225.318,218.238,7.0800000000000125,8.389418810099352,1.8813017072820604
93.0,264.2166666666667,16593.0,225.103,217.816,7.287000000000006,8.6429883232354,1.9381639010496734
94.0,267.2166666666667,16773.0,225.074,217.86,7.213999999999999,8.564524432746197,1.920568611735993
95.0,270.2166666666667,16953.0,226.135,218.959,7.175999999999988,8.527407272708913,1.9122452012437736
96.0,273.2166666666667,17133.0,226.232,219.296,6.936000000000007,8.249862425827596,1.8500066116460543
97.0,276.2166666666667,17313.0,223.898,217.123,6.775000000000006,8.06576629752981,1.8087236135850076
98.0,279.2166666666667,17493.0,223.842,217.314,6.52800000000002,7.778770163480845,1.7443656015234692
99.0,282.2166666666667,17673.0,225.982,218.185,7.796999999999997,9.299264744862777,2.0853318968791634
100.0,285.2166666666667,17853.0,224.0,216.103,7.896999999999991,9.426910875221793,2.1139561542214333
101.0,288.2166666666667,18033.0,223.96,216.887,7.0730000000000075,8.45070776832477,1.8950455701594522
102.0,291.2166666666667,18213.0,226.027,217.984,8.042999999999978,9.618020720170419,2.15681195695564
103.0,294.2166666666667,18393.0,223.096,216.235,6.86099999999999,8.21163046731124,1.841433210978183
104.0,297.2166666666667,18573.0,223.638,216.075,7.563000000000017,9.059549725151086,2.0315765312152316
105.0,300.2166666666667,18753.0,223.152,215.961,7.190999999999974,8.621217515520756,1.9332818634914621
106.0,303.2166666666667,18933.0,224.838,217.56,7.277999999999992,8.732819868649424,1.9583083524807716
107.0,306.2166666666667,19113.0,224.246,216.875,7.371000000000009,8.851734982079563,1.9849747057743334
108.0,309.2166666666667,19293.0,224.0,216.553,7.447000000000003,8.95033636218869,2.007085766020409
109.0,312.2166666666667,19473.0,221.456,214.761,6.694999999999993,8.053063653009568,1.80587508410235
110.0,315.2166666666667,19653.0,223.443,215.857,7.586000000000013,9.132139499393688,2.047854567787852
111.0,318.2166666666667,19833.0,223.829,216.638,7.1910000000000025,8.663528320191718,1.9427699330306936
112.0,321.2166666666667,20013.0,223.692,216.301,7.3910000000000196,8.911509019220968,1.9983788521962398
113.0,324.2166666666667,20193.0,222.122,214.871,7.251000000000005,8.74954116904163,1.962058053346577
114.0,327.2166666666667,20373.0,224.743,216.646,8.097000000000008,9.777947144168378,2.1926749721796126
115.0,330.2166666666667,20553.0,224.096,216.956,7.140000000000015,8.62888807725221,1.9350019636805031
116.0,333.2166666666667,20733.0,220.879,213.567,7.311999999999983,8.843472888553608,1.9831219563756035
117.0,336.2166666666667,20913.0,219.801,212.099,7.701999999999998,9.322174812589118,2.0904694100374797
118.0,339.2166666666667,21093.0,224.057,216.335,7.72199999999998,9.35336030727891,2.097462662577419
119.0,342.2166666666667,21273.0,219.182,211.951,7.2309999999999945,8.76511257724341,1.9655498943784648
120.0,345.2166666666667,21453.0,221.45,213.08,8.369999999999976,10.153202534897302,2.2768248546953433
121.0,348.2166666666667,21633.0,219.596,211.739,7.856999999999999,9.537840091871729,2.138831694398276
122.0,351.2166666666667,21813.0,220.19,212.749,7.4410000000000025,9.039357651652644,2.027048520013734
123.0,354.2166666666667,21993.0,219.82,212.142,7.677999999999997,9.333933349394213,2.0931062262302693
124.0,357.2166666666667,22173.0,219.748,212.396,7.352000000000004,8.943958974769219,2.005655656246201
125.0,360.2166666666667,22353.0,219.505,211.33,8.174999999999983,9.952156879231262,2.231740976561754
126.0,363.2166666666667,22533.0,221.172,213.484,7.687999999999988,9.365812652122282,2.1002550631171677
127.0,366.2166666666667,22713.0,218.527,211.035,7.49199999999999,9.133348612821727,2.048125707804575
128.0,369.2166666666667,22893.0,223.135,214.426,8.709000000000003,10.624250751320254,2.3824559876531906
129.0,372.2166666666667,23073.0,220.831,213.516,7.314999999999998,8.929758933494183,2.002471340085701
130.0,375.2166666666667,23253.0,218.781,211.471,7.310000000000002,8.929678762426198,2.002453361967015
131.0,378.2166666666667,23433.0,218.25,210.388,7.861999999999995,9.610417797936927,2.155107024718739
132.0,381.2166666666667,23613.0,218.508,210.655,7.853000000000009,9.60579590933591,2.1540705802268403
133.0,384.2166666666667,23793.0,218.482,209.813,8.669000000000011,10.610921228247202,2.379466882557567
134.0,387.2166666666667,23973.0,217.741,210.045,7.696000000000026,9.426127701500317,2.113780529891231
135.0,390.2166666666667,24153.0,219.06,211.415,7.64500000000001,9.369745738132384,2.1011370457184877
136.0,393.2166666666667,24333.0,216.825,209.039,7.786000000000001,9.548709806282918,2.141269194866702
137.0,396.2166666666667,24513.0,216.586,209.649,6.937000000000012,8.512947054722158,1.909002541245276
138.0,399.2166666666667,24693.0,216.64,208.643,7.996999999999986,9.819995246242911,2.202104131458866
139.0,402.2166666666667,24873.0,216.021,208.056,7.964999999999975,9.786872817285742,2.194676527287831
140.0,405.2166666666667,25053.0,216.21,207.952,8.25800000000001,10.153250527091794,2.2768356167993073
141.0,408.2166666666667,25233.0,217.85,209.881,7.968999999999994,9.80402077541306,2.19852190485588
142.0,411.2166666666667,25413.0,215.862,208.474,7.388000000000005,9.09485132090169,2.0394928069261833
143.0,414.2166666666667,25593.0,216.381,208.186,8.194999999999993,10.094485295026308,2.2636576918540734
144.0,417.2166666666667,25773.0,216.249,208.218,8.031000000000006,9.898504181015207,2.2197095218163256
145.0,420.2166666666667,25953.0,216.183,208.197,7.98599999999999,9.849002011186787,2.2086088104654675
146.0,423.2166666666667,26133.0,216.044,208.373,7.671000000000021,9.466210633084339,2.1227690056520445
147.0,426.2166666666667,26313.0,217.606,209.451,8.155000000000001,10.069495800218615,2.258053873483576
148.0,429.2166666666667,26493.0,215.42,207.511,7.908999999999992,9.77154562131584,2.191239450107787
149.0,432.2166666666667,26673.0,217.688,209.54,8.147999999999996,10.072772353015283,2.258788630504283
150.0,435.2166666666667,26853.0,215.661,207.662,7.998999999999995,9.894376172275662,2.2187838283844954
151.0,438.2166666666667,27033.0,215.478,207.304,8.174000000000007,10.116738375832627,2.2686478776894514
152.0,441.2166666666667,27213.0,216.999,209.076,7.923000000000002,9.811765916211431,2.200258729174339
153.0,444.2166666666667,27393.0,216.725,208.604,8.120999999999981,10.06276130746559,2.2565436839220907
154.0,447.2166666666667,27573.0,217.042,208.837,8.205000000000013,10.17266900998634,2.281190152655636
155.0,450.2166666666667,27753.0,216.571,208.238,8.332999999999998,10.337248016561585,2.3180964954025334
156.0,453.2166666666667,27933.0,213.954,205.9,8.054000000000002,9.996799706767117,2.2417519951510267
157.0,456.2166666666667,28113.0,214.559,206.551,8.00800000000001,9.945299205627894,2.2302031640684175
158.0,459.2166666666667,28293.0,214.724,206.953,7.770999999999987,9.656366934782568,2.1654109792062393
159.0,462.2166666666667,28473.0,214.29,206.224,8.066000000000003,10.028518872600948,2.2488649218253887
160.0,465.2166666666667,28653.0,214.143,205.995,8.147999999999996,10.136079689195402,2.272985108512481
161.0,468.2166666666667,28833.0,215.976,207.692,8.283999999999992,10.310939034991842,2.3121967861301314
162.0,471.2166666666667,29013.0,213.68,205.764,7.915999999999997,9.858294483790866,2.210692619245389
163.0,474.2166666666667,29193.0,213.825,205.582,8.242999999999995,10.271123192551348,2.3032682042991706
164.0,477.2166666666667,29373.0,215.471,207.182,8.289000000000016,10.334041527461677,2.3173774499531903
165.0,480.2166666666667,29553.0,213.533,205.07,8.462999999999994,10.556662541354598,2.367299536690526
166.0,483.2166666666667,29733.0,215.441,208.013,7.427999999999997,9.270587599674144,2.0789011341023182
167.0,486.2166666666667,29913.0,217.723,209.74,7.983000000000004,9.968582811050913,2.235424441921572
168.0,489.2166666666667,30093.0,213.842,204.485,9.357,11.690544081026198,2.621569030767021
169.0,492.2166666666667,30273.0,214.833,207.003,7.8300000000000125,9.787900781612944,2.194907045168457
170.0,495.2166666666667,30453.0,213.04,204.632,8.407999999999987,10.51596474919188,2.3581731803109682
171.0,498.2166666666667,30633.0,214.514,206.173,8.341000000000008,10.437634941188941,2.340607958587908
172.0,501.2166666666667,30813.0,214.517,206.412,8.10499999999999,10.147604351776286,2.2755694791202714
173.0,504.2166666666667,30993.0,212.296,204.14,8.156000000000006,10.216760905495947,2.2910776264100363
174.0,507.2166666666667,31173.0,214.58,206.218,8.362000000000023,10.480226845792668,2.3501590639339573
175.0,510.2166666666667,31353.0,214.395,205.741,8.653999999999996,10.85177892638637,2.433478490390968
176.0,513.2166666666666,31533.0,212.853,204.2,8.65300000000002,10.856087029699175,2.434444569484286
177.0,516.2166666666666,31713.0,213.216,203.281,9.935000000000002,12.47085147636907,2.7965505960330392
178.0,519.2166666666666,31893.0,213.151,203.681,9.469999999999999,11.893205220250984,2.6670151761858594
179.0,522.2166666666666,32073.0,215.075,205.665,9.409999999999997,11.823834674329968,2.6514590417943817
180.0,525.2166666666666,32253.0,212.665,204.011,8.653999999999996,10.879389310435313,2.43967003521973
181.0,528.2166666666666,32433.0,211.751,202.859,8.891999999999996,11.184204786264605,2.5080239805959352
182.0,531.2166666666666,32613.0,211.599,202.821,8.777999999999992,11.046340009890786,2.477108222897214
183.0,534.2166666666666,32793.0,211.412,202.774,8.638000000000005,10.875578427609172,2.4388154563115414
184.0,537.2166666666666,32973.0,212.825,204.228,8.59699999999998,10.829330374301081,2.4284444707145125
185.0,540.2166666666666,33153.0,213.3,205.404,7.896000000000015,9.951224412253243,2.231531873671859
186.0,543.2166666666666,33333.0,210.651,202.663,7.9879999999999995,10.072130618555475,2.2586447234992586
187.0,546.2166666666666,33513.0,210.923,202.778,8.14500000000001,10.27513455034184,2.3041677391096966
188.0,549.2166666666666,33693.0,211.625,203.373,8.25200000000001,10.415209797672592,2.3355791882119954
189.0,552.2166666666666,33873.0,211.306,203.068,8.238,10.402607637921523,2.332753192133866
190.0,555.2166666666666,34053.0,212.933,204.455,8.47799999999998,10.710869738548784,2.4018800326609213
191.0,558.2166666666666,34233.0,212.489,204.738,7.751000000000005,9.797138296138561,2.196978529766075
192.0,561.2166666666666,34413.0,210.382,201.94,8.442000000000007,10.67569901837383,2.3939931054006176
193.0,564.2166666666666,34593.0,212.124,203.805,8.318999999999988,10.525212629731753,2.360246989455823
194.0,567.2166666666666,34773.0,210.451,202.233,8.21799999999999,10.402410635802212,2.3327090150064884
195.0,570.2166666666666,34953.0,210.711,203.045,7.666000000000025,9.70832059765241,2.1770614304316482
