"Frame","Time (aligned)","Time [ s]","Intensity Ch3-T2","background","Intensity (bg-subst)","bleach-Corrected","Normalized"
1.0,-945.8833333333333,0.0,270.655,267.31,3.3449999999999704,3.3449999999999704,0.38877465489953544
2.0,-942.8833333333333,180.0,265.545,262.664,2.8810000000000286,2.890568159309501,0.33595803844518585
3.0,-939.8833333333333,360.0,265.828,263.064,2.763999999999953,2.7822552452834284,0.3233693042832576
4.0,-936.8833333333333,540.0,262.883,260.849,2.033999999999992,2.0540365269672605,0.23873164183041676
5.0,-933.8833333333333,720.0,260.656,258.555,2.100999999999999,2.128438683474435,0.2473790776211068
6.0,-930.3333333333334,933.0,284.148,281.577,2.5710000000000264,2.612732359929292,0.30366640405870504
7.0,-927.3333333333334,1113.0,278.808,275.761,3.0469999999999686,3.1060126514965503,0.3609982052912326
8.0,-924.3333333333334,1293.0,276.508,274.167,2.341000000000008,2.393594293742562,0.2781969493331151
9.0,-921.3333333333334,1473.0,276.528,274.065,2.4630000000000223,2.5258794560952533,0.2935718726042652
10.0,-918.3333333333334,1653.0,274.667,272.593,2.0739999999999554,2.133226839340455,0.24793558394230777
11.0,-915.3333333333334,1833.0,270.958,268.902,2.05600000000004,2.1208636368437728,0.24649866322957212
12.0,-912.3333333333334,2013.0,270.526,268.518,2.008000000000038,2.0772857136591685,0.24143379266235743
13.0,-909.3333333333334,2193.0,269.275,266.625,2.6499999999999773,2.7491795227701252,0.31952505836228234
14.0,-906.3333333333334,2373.0,267.618,265.506,2.112000000000023,2.1971409475079793,0.2553640399500928
15.0,-903.3333333333334,2553.0,266.737,264.291,2.4460000000000264,2.551582268759363,0.29655919760379784
16.0,-900.3333333333334,2733.0,265.927,263.633,2.2940000000000396,2.399486206495874,0.2788817404683519
17.0,-897.3333333333334,2913.0,264.468,262.45,2.018000000000029,2.11641382157786,0.24598148074993925
18.0,-894.3333333333334,3093.0,263.879,261.768,2.111000000000047,2.2197566299220632,0.25799256136290394
19.0,-891.3333333333334,3273.0,263.46,261.447,2.012999999999977,2.1221788254677376,0.24665152182550926
20.0,-888.3333333333334,3453.0,263.123,260.342,2.781000000000006,2.9392998208434116,0.34162190537957365
21.0,-885.3333333333334,3633.0,261.707,259.625,2.0819999999999936,2.2060339628102668,0.2563976360502911
22.0,-882.3333333333334,3813.0,259.495,256.788,2.7069999999999936,2.875361235819285,0.3341906045342763
23.0,-879.3333333333334,3993.0,260.849,258.435,2.4139999999999873,2.570386754190781,0.2987447603344893
24.0,-876.3333333333334,4173.0,260.256,257.836,2.419999999999959,2.582963262320914,0.3002064726239165
25.0,-873.3333333333334,4353.0,259.308,257.26,2.048000000000002,2.191085434306605,0.25466023425349976
26.0,-870.3333333333334,4533.0,256.608,254.331,2.2770000000000152,2.4417655598733323,0.2837956839716993
27.0,-867.3333333333334,4713.0,257.811,255.772,2.0389999999999873,2.191568468853627,0.2547163752368549
28.0,-864.3333333333334,4893.0,255.661,253.195,2.466000000000008,2.6565213781208397,0.30875580927120383
29.0,-861.3333333333334,5073.0,257.629,255.62,2.0090000000000146,2.1690440587392916,0.2520984620024703
30.0,-858.3333333333334,5253.0,258.456,256.196,2.259999999999991,2.445406509330434,0.28421885553184617
31.0,-855.3333333333334,5433.0,257.603,255.574,2.0289999999999964,2.20021476984644,0.2557212968167169
32.0,-852.3333333333334,5613.0,255.497,253.233,2.26400000000001,2.460289941313227,0.285948691445996
33.0,-849.3333333333334,5793.0,256.448,254.499,1.9489999999999839,2.1224389176998035,0.24668175120301702
34.0,-846.3333333333334,5973.0,256.074,254.163,1.9110000000000014,2.085376179421033,0.2423741119551961
35.0,-843.3333333333334,6153.0,253.943,251.882,2.061000000000007,2.2536639219058316,0.2619334569502185
36.0,-840.3333333333334,6333.0,253.322,251.133,2.188999999999993,2.398455412616512,0.27876193582419
37.0,-837.3333333333334,6513.0,254.556,252.511,2.045000000000016,2.245129632032593,0.26094155393070256
38.0,-834.3333333333334,6693.0,253.851,252.148,1.703000000000003,1.8733230532158516,0.21772810867842846
39.0,-831.3333333333334,6873.0,251.78,249.781,1.9989999999999952,2.20317321644566,0.2560651440680325
40.0,-828.3333333333334,7053.0,253.782,251.687,2.094999999999999,2.3133737004748163,0.2688732621990332
41.0,-825.3333333333334,7233.0,251.488,249.466,2.0219999999999914,2.2369543906587523,0.2599913815409162
42.0,-822.3333333333334,7413.0,250.635,248.732,1.9029999999999916,2.109198553965847,0.24514288189317748
43.0,-819.3333333333334,7593.0,249.894,248.162,1.7319999999999993,1.9231711735079262,0.22352173670950232
44.0,-816.3333333333334,7773.0,249.503,247.786,1.7169999999999845,1.9099438098814072,0.22198437834503876
45.0,-813.3333333333334,7953.0,250.892,249.148,1.7439999999999998,1.943417324793416,0.22587485792895226
46.0,-810.3333333333334,8133.0,248.308,246.988,1.3199999999999932,1.4735064766781238,0.17125918444328042
47.0,-807.3333333333334,8313.0,249.053,246.852,2.2009999999999934,2.4611954526067623,0.28605393504559296
48.0,-804.3333333333334,8493.0,250.184,248.621,1.5629999999999882,1.7507437152916803,0.2034812507414229
49.0,-801.3333333333334,8673.0,249.687,247.826,1.8610000000000184,2.088032605851983,0.24268285672917475
50.0,-798.3333333333334,8853.0,246.68,244.849,1.8310000000000173,2.0577684002031775,0.2391653810619332
51.0,-795.3333333333334,9033.0,249.465,247.688,1.7770000000000152,2.0003359292646175,0.23249025727443948
52.0,-792.3333333333334,9213.0,247.126,245.287,1.8389999999999986,2.073456246658488,0.240988710536307
53.0,-789.3333333333334,9393.0,246.686,245.036,1.6500000000000057,1.8633102562103563,0.21656436527023995
54.0,-786.3333333333334,9573.0,245.063,243.122,1.940999999999974,2.195358541662268,0.25515687874902937
55.0,-783.3333333333334,9753.0,246.249,244.573,1.6759999999999877,1.898555948814197,0.22066081728182543
56.0,-780.3333333333334,9933.0,244.137,242.226,1.9110000000000014,2.168055838986088,0.25198360556195715
57.0,-777.3333333333334,10113.0,244.55,243.5,1.0500000000000114,1.1930277632950572,0.13866037577297596
58.0,-774.3333333333334,10293.0,241.806,240.124,1.6820000000000164,1.9139472134252407,0.2224496763513698
59.0,-771.3333333333334,10473.0,243.755,241.84,1.914999999999992,2.182261773228547,0.2536346988900999
60.0,-768.3333333333334,10653.0,241.728,240.243,1.4850000000000136,1.6946895903618022,0.19696632605523187
61.0,-765.3333333333334,10833.0,241.129,239.668,1.4609999999999843,1.6696723338495911,0.19405868023548056
62.0,-762.3333333333334,11013.0,240.12,238.546,1.5740000000000123,1.801336796039508,0.20936146225354282
63.0,-759.3333333333334,11193.0,241.477,240.285,1.1920000000000073,1.366053090152376,0.15877034938667822
64.0,-756.3333333333334,11373.0,242.462,240.826,1.6359999999999957,1.8774477761306667,0.21820750710227405
65.0,-753.3333333333334,11553.0,240.694,239.629,1.0649999999999977,1.223825980001389,0.14223991719944096
66.0,-750.3333333333334,11733.0,239.469,238.207,1.2620000000000005,1.452136017371709,0.16877538984181675
67.0,-747.3333333333334,11913.0,237.53,236.226,1.304000000000002,1.502435846391303,0.1746215179938641
68.0,-744.3333333333334,12093.0,237.803,236.505,1.2980000000000018,1.4974629766363012,0.1740435431888234
69.0,-741.3333333333334,12273.0,240.178,238.625,1.5529999999999973,1.7939432288577728,0.20850214042108972
70.0,-738.3333333333334,12453.0,240.26,238.542,1.7179999999999893,1.9870516108503782,0.23094627930521036
71.0,-735.3333333333334,12633.0,237.745,235.947,1.7980000000000018,2.082176111142056,0.2420021820775237
72.0,-732.3333333333334,12813.0,236.795,235.292,1.502999999999986,1.742696247934772,0.20254592896429366
73.0,-729.3333333333334,12993.0,238.257,236.709,1.5480000000000018,1.7970571811338485,0.2088640614140658
74.0,-726.3333333333334,13173.0,238.131,236.334,1.796999999999997,2.088625817299632,0.2427518030896657
75.0,-723.3333333333334,13353.0,235.994,234.291,1.703000000000003,1.9817202902792685,0.2303266433365431
76.0,-720.3333333333334,13533.0,237.437,235.73,1.707000000000022,1.98870335515834,0.23113825428975746
77.0,-717.3333333333334,13713.0,235.009,233.671,1.3379999999999939,1.5606126540108463,0.18138315276380276
78.0,-714.3333333333334,13893.0,237.27,235.323,1.9470000000000027,2.273533445430784,0.26424280437964504
79.0,-711.3333333333334,14073.0,236.716,235.582,1.1340000000000146,1.3256803103874832,0.15407799855844764
80.0,-708.3333333333334,14253.0,234.657,233.049,1.608000000000004,1.8818986472010972,0.2187248122934277
81.0,-705.3333333333334,14433.0,234.125,232.242,1.8830000000000098,2.2061707645753152,0.25641353591845145
82.0,-702.3333333333334,14613.0,235.518,233.852,1.6659999999999968,1.9540546777408938,0.22711119073050692
83.0,-699.3333333333334,14793.0,236.204,234.406,1.7980000000000018,2.1111481207855243,0.24536947147988108
84.0,-696.3333333333334,14973.0,234.718,233.33,1.3879999999999768,1.6314744664188816,0.18961910991312705
85.0,-693.3333333333334,15153.0,236.076,234.512,1.563999999999993,1.840280208869557,0.21388768404236572
86.0,-690.3333333333334,15333.0,233.638,232.034,1.6040000000000134,1.88930752724877,0.21958591387301696
87.0,-687.3333333333334,15513.0,232.302,230.935,1.3669999999999902,1.6118056664105551,0.18733309169622867
88.0,-684.3333333333334,15693.0,233.352,232.498,0.8540000000000134,1.007958822504301,0.11715062582124221
89.0,-681.3333333333334,15873.0,231.59,230.426,1.1640000000000157,1.3752246014479892,0.15983631385270491
90.0,-678.3333333333334,16053.0,231.511,230.263,1.2479999999999905,1.4759309459144787,0.17154096985155498
91.0,-675.3333333333334,16233.0,232.066,231.589,0.47700000000000387,0.5646713994560779,0.06562927607030683
92.0,-672.3333333333334,16413.0,232.489,231.08,1.4089999999999918,1.669589138902528,0.19404901085227164
93.0,-669.3333333333334,16593.0,231.958,230.884,1.0740000000000123,1.2738533634081126,0.14805438019479997
94.0,-666.3333333333334,16773.0,230.299,228.958,1.3410000000000082,1.5920470285989357,0.18503663202612483
95.0,-663.3333333333334,16953.0,231.699,230.781,0.9180000000000064,1.0908806962579223,0.12678827091905603
96.0,-660.3333333333334,17133.0,231.928,230.51,1.4180000000000064,1.6866068223505726,0.19602690143813206
97.0,-657.3333333333334,17313.0,229.764,228.446,1.318000000000012,1.5691040561098712,0.1823700711257345
98.0,-654.3333333333334,17493.0,231.272,229.748,1.524000000000001,1.8159996521361486,0.211065661601469
99.0,-651.3333333333334,17673.0,228.819,227.424,1.3949999999999818,1.6637776476957047,0.19337356676007897
100.0,-648.3333333333334,17853.0,228.322,227.076,1.2460000000000093,1.4873915348267006,0.1728729837526894
101.0,-645.3333333333334,18033.0,228.064,226.774,1.289999999999992,1.5412714578168916,0.17913521049903475
102.0,-642.3333333333334,18213.0,227.773,226.335,1.4379999999999882,1.7195963938337668,0.19986113440335254
103.0,-639.3333333333334,18393.0,228.95,227.64,1.3100000000000023,1.5678816371050515,0.18222799473507936
104.0,-636.3333333333334,18573.0,228.711,227.527,1.184000000000026,1.418287303263136,0.16484130250359444
105.0,-633.3333333333334,18753.0,228.327,227.184,1.1430000000000007,1.3703311945821535,0.15926757467017924
106.0,-630.3333333333334,18933.0,228.754,227.391,1.3629999999999995,1.6354538995560832,0.190081621944401
107.0,-627.3333333333334,19113.0,228.774,227.267,1.507000000000005,1.8097360762439194,0.2103376736923693
108.0,-624.3333333333334,19293.0,226.776,225.096,1.6800000000000068,2.0191439624650265,0.23467623234673488
109.0,-621.3333333333334,19473.0,227.943,226.628,1.3150000000000261,1.5817443918906355,0.18383920182258978
110.0,-618.3333333333334,19653.0,225.602,223.983,1.6189999999999998,1.9489762522433896,0.2265209476452378
111.0,-615.3333333333334,19833.0,227.067,225.659,1.4080000000000155,1.6963214955958932,0.19715599523137908
112.0,-612.3333333333334,20013.0,225.083,223.625,1.4579999999999984,1.7579461710220705,0.20431836052946822
113.0,-609.3333333333334,20193.0,226.819,225.152,1.6670000000000016,2.0115136020952145,0.23378938908230057
114.0,-606.3333333333334,20373.0,226.31,224.999,1.311000000000007,1.5831652100783993,0.18400433727868032
115.0,-603.3333333333334,20553.0,226.069,224.605,1.4639999999999986,1.7692846141592713,0.20563617796377714
116.0,-600.3333333333334,20733.0,225.969,224.898,1.070999999999998,1.2953172132988124,0.1505490291735959
117.0,-597.3333333333334,20913.0,224.483,223.048,1.4350000000000023,1.736863263576397,0.20186798681751886
118.0,-594.3333333333334,21093.0,224.707,223.196,1.5109999999999957,1.8302159316625783,0.21271795731651927
119.0,-591.3333333333334,21273.0,224.591,222.965,1.6260000000000048,1.970968476088762,0.2290770072075571
120.0,-588.3333333333334,21453.0,225.155,224.177,0.9780000000000086,1.1863598660847883,0.13788539537332636
121.0,-585.3333333333334,21633.0,225.003,223.56,1.4429999999999836,1.7516995357732914,0.20359234155693387
122.0,-582.3333333333334,21813.0,222.493,221.301,1.1920000000000073,1.4480465422349165,0.1683000881123618
123.0,-579.3333333333334,21993.0,222.636,221.427,1.2090000000000032,1.4697480358710129,0.17082235737967957
124.0,-576.3333333333334,22173.0,222.746,221.398,1.3480000000000132,1.6398880165926304,0.19059697988779944
125.0,-573.3333333333334,22353.0,222.556,221.404,1.1520000000000152,1.402432382247656,0.16299855468707644
126.0,-570.3333333333334,22533.0,222.198,220.937,1.2609999999999957,1.5361979389081912,0.1785455376850269
127.0,-567.3333333333334,22713.0,222.031,220.514,1.516999999999996,1.8493446136746583,0.21494119999153552
128.0,-564.3333333333334,22893.0,222.207,220.78,1.4269999999999925,1.7408205100624548,0.20232792019179974
129.0,-561.3333333333334,23073.0,222.186,220.794,1.391999999999996,1.6992788018351155,0.19749970994366187
130.0,-558.3333333333334,23253.0,223.731,222.249,1.4819999999999993,1.8103671581279912,0.210411021567315
131.0,-555.3333333333334,23433.0,223.115,221.797,1.318000000000012,1.6111079442484095,0.18725199851452345
132.0,-552.3333333333334,23613.0,220.815,219.742,1.0730000000000075,1.3124944620804142,0.15254546533718055
133.0,-549.3333333333334,23793.0,220.594,219.127,1.4669999999999845,1.7956190381633936,0.2086969123745935
134.0,-546.3333333333334,23973.0,220.872,219.278,1.5940000000000225,1.9523450566777114,0.22691248898496202
135.0,-543.3333333333334,24153.0,222.533,221.618,0.914999999999992,1.1214280379844401,0.13033865424874969
136.0,-540.3333333333334,24333.0,221.701,220.458,1.242999999999995,1.524408719395019,0.17717532849286893
137.0,-537.3333333333334,24513.0,221.306,220.33,0.9759999999999991,1.1977275948405368,0.13920661654642286
138.0,-534.3333333333334,24693.0,219.468,218.16,1.3079999999999927,1.6061715370871175,0.18667826159656384
139.0,-531.3333333333334,24873.0,220.709,219.529,1.1800000000000068,1.4499070840423451,0.16851633071299235
140.0,-528.3333333333334,25053.0,221.331,219.989,1.3419999999999845,1.6499954235113845,0.1917717193905701
141.0,-525.3333333333334,25233.0,221.761,220.607,1.1539999999999964,1.4197314562462848,0.1650091500604392
142.0,-522.3333333333334,25413.0,220.203,218.814,1.38900000000001,1.7099009860222696,0.1987342797468428
143.0,-519.3333333333334,25593.0,219.555,218.38,1.1750000000000114,1.4473484102081802,0.1682189472938958
144.0,-516.3333333333334,25773.0,219.547,218.461,1.0859999999999843,1.3385351189867205,0.15557205648878192
145.0,-513.3333333333334,25953.0,222.055,220.633,1.421999999999997,1.753729133472026,0.20382823278112236
146.0,-510.3333333333333,26133.0,222.161,220.858,1.3029999999999973,1.6079354001966935,0.18688326765686739
147.0,-507.3333333333333,26313.0,220.327,219.005,1.3220000000000027,1.6323572590912365,0.18972171302719062
148.0,-504.3333333333333,26493.0,221.625,220.498,1.1270000000000095,1.3924050973856437,0.16183312741897232
149.0,-501.3333333333333,26673.0,221.189,220.203,0.98599999999999,1.2189191875396383,0.14166962226790708
150.0,-498.3333333333333,26853.0,220.996,219.758,1.2379999999999995,1.5313461309260248,0.17798163335799982
151.0,-495.3333333333333,27033.0,220.289,219.517,0.7719999999999914,0.9554834874165274,0.11105164815622373
152.0,-492.3333333333333,27213.0,218.731,217.342,1.3889999999999816,1.7201240511949383,0.1999224617003614
153.0,-489.3333333333333,27393.0,219.915,218.864,1.0509999999999877,1.3022980093764607,0.15136037643398803
154.0,-486.3333333333333,27573.0,217.852,216.444,1.4080000000000155,1.7456572780086412,0.20289007648151805
155.0,-483.3333333333333,27753.0,218.039,216.463,1.5759999999999934,1.9550585472340085,0.22722786607153828
156.0,-480.3333333333333,27933.0,217.091,215.961,1.1299999999999955,1.4025805399362794,0.1630157744043456
157.0,-477.3333333333333,28113.0,216.824,215.684,1.1400000000000148,1.4157893474545369,0.16455097607386576
158.0,-474.3333333333333,28293.0,217.041,215.709,1.3319999999999936,1.6551641689782965,0.19237245996909397
159.0,-471.3333333333333,28473.0,218.732,217.418,1.313999999999993,1.6337061490946654,0.18987848858640752
160.0,-468.3333333333333,28653.0,217.068,215.708,1.3600000000000136,1.69183460693494,0.1966345038739098
161.0,-465.3333333333333,28833.0,218.703,217.381,1.3220000000000027,1.6454685422814166,0.19124557987249777
162.0,-462.3333333333333,29013.0,218.508,217.058,1.450000000000017,1.8057765287388745,0.2098774728807603
163.0,-459.3333333333333,29193.0,218.332,216.895,1.4369999999999834,1.7905621773257463,0.20810917565500267
164.0,-456.3333333333333,29373.0,216.339,214.792,1.546999999999997,1.9286720042204313,0.22416107409721978
165.0,-453.3333333333333,29553.0,215.722,214.114,1.608000000000004,2.0058033045608235,0.2331257062860953
166.0,-450.3333333333333,29733.0,215.301,213.931,1.3699999999999761,1.7098418163103608,0.1987274027111693
167.0,-447.3333333333333,29913.0,215.193,213.955,1.2379999999999995,1.5459232769736966,0.1796758710034718
168.0,-444.3333333333333,30093.0,214.905,213.806,1.0989999999999895,1.3730798274070397,0.1595870361882482
169.0,-441.3333333333333,30273.0,214.483,212.941,1.5420000000000016,1.9275789278731994,0.22403403063543387
170.0,-438.3333333333333,30453.0,215.609,214.195,1.4140000000000157,1.768503110770398,0.20554534725815318
171.0,-435.3333333333333,30633.0,213.736,212.274,1.461999999999989,1.8294955381870404,0.21263422914765703
172.0,-432.3333333333333,30813.0,213.491,212.027,1.464000000000027,1.8329540741518537,0.21303619958896586
173.0,-429.3333333333333,30993.0,213.425,212.077,1.3480000000000132,1.6885965792801205,0.19625816214474462
174.0,-426.3333333333333,31173.0,215.193,213.574,1.6189999999999998,2.0291183046326573,0.23583550631805644
175.0,-423.3333333333333,31353.0,214.803,213.338,1.4650000000000034,1.8370529381969118,0.21351259254998156
176.0,-420.3333333333333,31533.0,212.999,211.049,1.9499999999999886,2.4464774884910687,0.2843433307347103
177.0,-417.3333333333333,31713.0,212.539,210.859,1.6799999999999784,2.1088103150779833,0.24509775859283434
178.0,-414.3333333333333,31893.0,214.344,212.798,1.5459999999999923,1.9415940095573319,0.22566294200916703
179.0,-411.3333333333333,32073.0,214.935,213.487,1.4480000000000075,1.8194381092911678,0.21146529837092473
180.0,-408.3333333333333,32253.0,213.625,212.065,1.5600000000000023,1.9611563813588075,0.22793659054313867
181.0,-405.3333333333333,32433.0,213.234,211.633,1.600999999999999,2.013710285965995,0.23404469999823063
182.0,-402.3333333333333,32613.0,213.996,212.799,1.1970000000000027,1.5063190922578393,0.17507285060123412
183.0,-399.3333333333333,32793.0,211.658,210.266,1.391999999999996,1.7525822147756325,0.2036949314596311
184.0,-396.3333333333333,32973.0,213.704,212.093,1.6110000000000184,2.029318510294205,0.2358587753425638
185.0,-393.3333333333333,33153.0,212.658,211.168,1.4899999999999807,1.8778273017042948,0.21825161769238252
186.0,-390.3333333333333,33333.0,214.748,213.201,1.546999999999997,1.950624194655144,0.22671248075209105
187.0,-387.3333333333333,33513.0,215.006,213.491,1.5149999999999864,1.9112128721630113,0.22213187587884342
188.0,-384.3333333333333,33693.0,215.229,213.82,1.4090000000000202,1.7783604707853702,0.20669102490779187
189.0,-381.3333333333333,33873.0,212.649,211.073,1.5759999999999934,1.9901079919111744,0.2313015090487537
