"Frame","Time (aligned)","Time [ s]","Intensity Ch3-T2","background","Intensity (bg-subst)","bleach-Corrected","Normalized"
1.0,-12.333333333333334,0.0,269.475,255.014,14.461000000000013,14.461000000000013,1.0067402414382793
2.0,-9.333333333333334,180.0,267.588,253.237,14.351000000000028,14.39866145583142,1.002400381054682
3.0,-6.333333333333333,360.0,263.518,249.319,14.198999999999984,14.292779387764117,0.9950291246567801
4.0,-3.3333333333333335,540.0,263.105,249.18,13.925000000000011,14.062172388406706,0.9789748167797012
5.0,-0.3333333333333333,720.0,261.917,247.499,14.417999999999978,14.606296496113455,1.016855436070558
6.0,3.2166666666666663,933.0,279.622,265.695,13.927000000000021,14.153062456917514,0.9853023660167465
7.0,6.216666666666667,1113.0,274.402,260.327,14.074999999999989,14.347597003549183,0.9988453959900576
8.0,9.216666666666667,1293.0,273.631,260.022,13.60899999999998,13.914747861402121,0.968711473725243
9.0,12.216666666666667,1473.0,272.222,258.242,13.979999999999961,14.336904099151937,0.9981009815543644
10.0,15.216666666666667,1653.0,268.552,255.256,13.29600000000002,13.675691444489557,0.9520689376018819
11.0,18.21666666666667,1833.0,268.795,255.142,13.65300000000002,14.083731144857737,0.9804756858533904
12.0,21.21666666666667,2013.0,266.76,253.864,12.895999999999987,13.3409743841375,0.9287667362221473
13.0,24.21666666666667,2193.0,268.297,254.187,14.110000000000014,14.638084175957296,1.0190684183318643
14.0,27.21666666666667,2373.0,265.455,252.516,12.938999999999993,13.46060924233211,0.9370954289835938
15.0,30.21666666666667,2553.0,264.418,251.2,13.218000000000018,13.788558637964409,0.9599264817281065
16.0,33.21666666666666,2733.0,261.575,248.5,13.074999999999989,13.676234590206185,0.9521067501079253
17.0,36.21666666666666,2913.0,263.603,250.814,12.789000000000016,13.4126939366496,0.9337596799751297
18.0,39.21666666666666,3093.0,264.423,251.191,13.232,13.913699539141682,0.9686384920361772
19.0,42.21666666666666,3273.0,263.417,251.506,11.910999999999973,12.557015395005692,0.8741893859700026
20.0,45.21666666666666,3453.0,262.824,250.936,11.888000000000005,12.56468761962834,0.8747235079027165
21.0,48.21666666666666,3633.0,259.606,248.212,11.394000000000005,12.072791052958822,0.8404788451344756
22.0,51.21666666666666,3813.0,260.08,249.818,10.261999999999972,10.90024270483099,0.7588488328882776
23.0,54.21666666666666,3993.0,258.463,249.547,8.916000000000025,9.493607415229988,0.6609222475159995
24.0,57.21666666666666,4173.0,252.753,247.346,5.406999999999982,5.77110841296255,0.40177076806807255
25.0,60.21666666666666,4353.0,250.643,247.984,2.658999999999992,2.844773520420527,0.19804633018362372
26.0,63.21666666666666,4533.0,249.424,247.354,2.069999999999993,2.219786872612098,0.15453625420614236
27.0,66.21666666666667,4713.0,248.96,246.987,1.9730000000000132,2.1206300093419626,0.14763319048517987
28.0,69.21666666666667,4893.0,247.494,246.005,1.4890000000000043,1.604039064080263,0.11166936412755647
29.0,72.21666666666667,5073.0,247.662,246.545,1.1170000000000186,1.2059841780048839,0.08395773477182633
30.0,75.21666666666667,5253.0,246.681,245.104,1.5769999999999982,1.7063743651389847,0.11879370308720769
31.0,78.21666666666667,5433.0,245.735,243.393,2.342000000000013,2.5396269053624443,0.17680275249759594
32.0,81.21666666666667,5613.0,242.205,240.644,1.561000000000007,1.696339486921355,0.11809509886069361
33.0,84.21666666666667,5793.0,241.944,239.954,1.9899999999999807,2.1670874531670616,0.15086744663711163
34.0,87.21666666666667,5973.0,240.94,239.583,1.3569999999999993,1.480824424633353,0.10309145555515396
35.0,90.21666666666667,6153.0,240.305,239.42,0.8850000000000193,0.9677305050396399,0.06737108376258863
36.0,93.21666666666667,6333.0,240.076,239.28,0.7959999999999923,0.8721656045878169,0.06071808390408
37.0,96.21666666666667,6513.0,239.262,238.423,0.8389999999999986,0.9211069737287666,0.06412526499703897
38.0,99.21666666666667,6693.0,241.271,239.488,1.782999999999987,1.961324136161969,0.13654269652018694
39.0,102.21666666666667,6873.0,240.689,239.215,1.4739999999999895,1.624550935988438,0.11309735160264028
40.0,105.21666666666667,7053.0,238.49,237.406,1.0840000000000032,1.1969914517015319,0.08333168266963249
41.0,108.21666666666667,7233.0,237.661,236.438,1.2230000000000132,1.3530144509276436,0.09419363079983234
42.0,111.21666666666667,7413.0,237.898,236.594,1.304000000000002,1.4452942272051923,0.10061792816858484
43.0,114.21666666666667,7593.0,237.469,235.882,1.586999999999989,1.7621666584047686,0.12267782913608333
44.0,117.21666666666667,7773.0,236.728,235.165,1.5630000000000166,1.7386384244873023,0.1210398497505162
45.0,120.21666666666667,7953.0,238.202,237.487,0.7150000000000034,0.7967565293734513,0.05546828440280431
46.0,123.21666666666667,8133.0,236.277,235.007,1.2699999999999818,1.41769183741,0.09869631579276814
47.0,126.21666666666667,8313.0,237.486,235.61,1.8759999999999764,2.097774951881073,0.14604207603484712
48.0,129.21666666666667,8493.0,235.128,233.782,1.3459999999999752,1.507678209073945,0.10496095181621841
49.0,132.21666666666667,8673.0,234.816,233.452,1.3640000000000043,1.5304011146599061,0.10654286616901489
50.0,135.21666666666667,8853.0,236.785,234.794,1.9909999999999854,2.2375843172061485,0.15577526974224626
51.0,138.21666666666667,9033.0,236.197,235.064,1.1330000000000098,1.2753970781411432,0.08879009490197699
52.0,141.21666666666667,9213.0,235.961,234.373,1.5880000000000223,1.7904559650319347,0.12464726301921414
53.0,144.21666666666667,9393.0,233.831,231.913,1.917999999999978,2.1659570129766124,0.1507887480941157
54.0,147.21666666666667,9573.0,234.745,233.755,0.9900000000000091,1.1197346503069008,0.07795324888989527
55.0,150.21666666666667,9753.0,231.796,230.296,1.5,1.699184918389807,0.1182931909956459
56.0,153.21666666666667,9933.0,233.941,232.385,1.5560000000000116,1.7653034460818293,0.12289620479359972
57.0,156.21666666666667,10113.0,233.337,231.828,1.5089999999999861,1.7145513283925766,0.11936296371649703
58.0,159.21666666666667,10293.0,233.096,231.669,1.4269999999999925,1.6237828023530188,0.11304387597567266
59.0,162.21666666666667,10473.0,230.226,229.244,0.9819999999999993,1.1190501625641989,0.07790559648996793
60.0,165.21666666666667,10653.0,229.976,228.5,1.475999999999999,1.684418744359593,0.11726520526794401
61.0,168.21666666666667,10833.0,229.633,228.103,1.5300000000000011,1.7485274954071894,0.12172830322160999
62.0,171.21666666666667,11013.0,229.163,227.251,1.9120000000000061,2.1881549898523023,0.1523341181652915
63.0,174.21666666666667,11193.0,232.046,230.387,1.6589999999999918,1.901243352821113,0.13236001604674982
64.0,177.21666666666667,11373.0,230.99,229.065,1.9250000000000114,2.209099614334697,0.15379223283981194
65.0,180.21666666666667,11553.0,231.779,229.602,2.1769999999999925,2.5016611816554186,0.17415966959522475
66.0,183.21666666666667,11733.0,230.807,229.332,1.4749999999999943,1.6972271201452154,0.1181568937632659
67.0,186.21666666666667,11913.0,230.576,228.538,2.0379999999999825,2.348132097350801,0.16347134185851023
68.0,189.21666666666667,12093.0,228.474,226.208,2.265999999999991,2.6142150270091222,0.18199539917452037
69.0,192.21666666666667,12273.0,228.314,226.767,1.546999999999997,1.7870123470978585,0.12440752657288448
70.0,195.21666666666667,12453.0,230.474,228.661,1.8129999999999882,2.0969293192501364,0.14598320511312404
71.0,198.21666666666667,12633.0,227.715,226.241,1.4739999999999895,1.7069675126937518,0.11883499660166
72.0,201.21666666666667,12813.0,229.149,227.408,1.7410000000000139,2.0186521408213514,0.14053373512415357
73.0,204.21666666666667,12993.0,229.002,226.625,2.3770000000000095,2.7594347025550197,0.1921052457425769
74.0,207.21666666666667,13173.0,226.639,224.613,2.0260000000000105,2.3547890405392784,0.16393478232547715
75.0,210.21666666666667,13353.0,226.539,224.39,2.149000000000001,2.500714564774012,0.1740937683914534
76.0,213.21666666666667,13533.0,226.722,224.51,2.2120000000000175,2.5770426605800973,0.17940754790879956
77.0,216.21666666666667,13713.0,228.276,226.007,2.2690000000000055,2.646509799664152,0.18424368402480173
78.0,219.21666666666667,13893.0,226.299,224.229,2.069999999999993,2.4171619065442735,0.16827703211325573
79.0,222.21666666666667,14073.0,225.873,223.684,2.188999999999993,2.5590072305451095,0.1781519643953588
80.0,225.21666666666667,14253.0,225.61,223.402,2.208000000000027,2.5840996349627257,0.17989883759096476
81.0,228.21666666666667,14433.0,225.373,222.767,2.6059999999999945,3.0532559811381996,0.2125603805839111
82.0,231.21666666666667,14613.0,226.71,224.749,1.9610000000000127,2.3000607581332084,0.16012473016843481
83.0,234.21666666666667,14793.0,225.069,223.06,2.008999999999986,2.3588968713337515,0.16422075968290853
84.0,237.21666666666667,14973.0,226.719,224.767,1.9519999999999982,2.2944078951366764,0.15973119136351496
85.0,240.21666666666667,15153.0,224.97,222.207,2.7630000000000052,3.251083259019577,0.22633264263338038
86.0,243.21666666666667,15333.0,224.588,221.944,2.6440000000000055,3.1142949514000726,0.21680976773961141
87.0,246.21666666666667,15513.0,224.191,221.858,2.3329999999999984,2.750799282908449,0.19150406847545084
88.0,249.21666666666667,15693.0,225.763,223.794,1.968999999999994,2.323970634087742,0.16178927856005548
89.0,252.21666666666667,15873.0,225.598,222.908,2.690000000000026,3.1781393280885544,0.22125446058255716
90.0,255.21666666666667,16053.0,225.154,222.863,2.290999999999997,2.709421311770907,0.18862343306619597
91.0,258.2166666666667,16233.0,223.418,220.889,2.5289999999999964,2.9938238348520074,0.20842285667122484
92.0,261.2166666666667,16413.0,222.387,220.479,1.907999999999987,2.260877272552179,0.15739686959625868
93.0,264.2166666666667,16593.0,222.872,220.305,2.5670000000000073,3.0446755901942244,0.21196303428347738
94.0,267.2166666666667,16773.0,221.757,220.023,1.7340000000000089,2.0586200951458253,0.14331620853445817
95.0,270.2166666666667,16953.0,221.145,219.398,1.747000000000014,2.0760006278459615,0.14452619966141075
96.0,273.2166666666667,17133.0,221.321,218.956,2.365000000000009,2.8129937481375893,0.1958338984277992
97.0,276.2166666666667,17313.0,223.322,221.584,1.7379999999999995,2.0691220406061688,0.14404732886557758
98.0,279.2166666666667,17493.0,223.749,220.874,2.875,3.4258523621334804,0.23849964969131845
99.0,282.2166666666667,17673.0,221.794,219.059,2.7350000000000136,3.2619583272027484,0.22708973887626702
100.0,285.2166666666667,17853.0,223.427,221.009,2.4180000000000064,2.886446814776039,0.20094752528914867
101.0,288.2166666666667,18033.0,221.121,219.014,2.1069999999999993,2.5174100477676045,0.17525606799589974
102.0,291.2166666666667,18213.0,222.995,219.926,3.069000000000017,3.6699870185506973,0.2554957207061114
103.0,294.2166666666667,18393.0,220.925,218.471,2.4540000000000077,2.937085143096032,0.2044728446224521
104.0,297.2166666666667,18573.0,222.255,219.828,2.4269999999999925,2.9072493961313723,0.2023957512608109
105.0,300.2166666666667,18753.0,222.029,219.253,2.7760000000000105,3.328118456832957,0.2316956489016805
106.0,303.2166666666667,18933.0,220.049,217.464,2.585000000000008,3.1017229129512027,0.2159345324845539
107.0,306.2166666666667,19113.0,221.674,219.247,2.4269999999999925,2.9145517299561807,0.20290412228064708
108.0,309.2166666666667,19293.0,219.637,216.925,2.711999999999989,3.2594752536935165,0.22691687323597984
109.0,312.2166666666667,19473.0,219.378,216.947,2.430999999999983,2.924122141966564,0.20357039148042558
110.0,315.2166666666667,19653.0,218.764,216.108,2.656000000000006,3.1973322581584034,0.22259062648065742
111.0,318.2166666666667,19833.0,218.713,215.995,2.7179999999999893,3.274575159822137,0.227968092594366
112.0,321.2166666666667,20013.0,217.941,216.098,1.8429999999999893,2.2221500639188347,0.15470077393414933
113.0,324.2166666666667,20193.0,220.049,217.108,2.9410000000000025,3.548807140829049,0.24705946737958115
114.0,327.2166666666667,20373.0,219.588,217.672,1.9159999999999968,2.313763953097019,0.16107871383528652
115.0,330.2166666666667,20553.0,219.547,217.392,2.155000000000001,2.604377283820516,0.18131051901734554
116.0,333.2166666666667,20733.0,219.35,216.95,2.4000000000000057,2.902671626439928,0.2020770578810714
117.0,336.2166666666667,20913.0,219.625,216.418,3.2069999999999936,3.8816170636163663,0.27022889840232917
118.0,339.2166666666667,21093.0,219.259,216.386,2.8729999999999905,3.4799539190381106,0.24226607071755138
119.0,342.2166666666667,21273.0,217.423,214.814,2.609000000000009,3.162519528976373,0.22016704751780264
120.0,345.2166666666667,21453.0,219.043,216.383,2.6599999999999966,3.2267047482469375,0.22463546900630393
121.0,348.2166666666667,21633.0,219.232,216.282,2.9499999999999886,3.581090527048682,0.249306959533457
122.0,351.2166666666667,21813.0,215.952,213.923,2.0289999999999964,2.464837612579381,0.1715961007671887
123.0,354.2166666666667,21993.0,218.146,216.08,2.065999999999974,2.5115793565835127,0.17485014921777756
124.0,357.2166666666667,22173.0,216.066,213.334,2.7319999999999993,3.3235712621150006,0.23137908407848554
125.0,360.2166666666667,22353.0,215.553,212.88,2.673000000000002,3.254081386933974,0.2265413651297778
126.0,363.2166666666667,22533.0,215.521,212.944,2.576999999999998,3.139398960005091,0.21855744879099684
127.0,366.2166666666667,22713.0,217.721,215.106,2.615000000000009,3.1878946372836263,0.22193360188221498
128.0,369.2166666666667,22893.0,214.904,212.439,2.4650000000000034,3.0070935930651572,0.20934666550791206
129.0,372.2166666666667,23073.0,217.398,214.281,3.1169999999999902,3.805066110143717,0.2648996040671251
130.0,375.2166666666667,23253.0,217.068,214.466,2.602000000000004,3.1785258741221605,0.22128137099312348
131.0,378.2166666666667,23433.0,217.018,214.284,2.734000000000009,3.3420099541541166,0.2326627417283898
132.0,381.2166666666667,23613.0,214.397,211.876,2.5209999999999866,3.0836892254470487,0.2146790702819431
133.0,384.2166666666667,23793.0,214.865,212.249,2.616000000000014,3.2020036835961228,0.22291583994950676
134.0,387.2166666666667,23973.0,216.914,213.508,3.4059999999999775,4.17169840843422,0.2904236679977006
135.0,390.2166666666667,24153.0,214.688,211.329,3.3589999999999804,4.11680522359535,0.28660213572759474
136.0,393.2166666666667,24333.0,216.813,213.438,3.375,4.139082403828005,0.2881530197470946
137.0,396.2166666666667,24513.0,213.687,210.649,3.038000000000011,3.728172574923737,0.2595464600098396
138.0,399.2166666666667,24693.0,216.269,213.03,3.2390000000000043,3.9773620861049004,0.276894437926333
139.0,402.2166666666667,24873.0,214.511,210.692,3.8189999999999884,4.692538266065819,0.326683293474688
140.0,405.2166666666667,25053.0,215.922,211.943,3.978999999999985,4.892199545567697,0.3405832343315856
141.0,408.2166666666667,25233.0,215.489,212.177,3.312000000000012,4.07465388482472,0.28366766031296986
142.0,411.2166666666667,25413.0,214.889,212.042,2.8470000000000084,3.5047430577432546,0.2439918312794118
143.0,414.2166666666667,25593.0,213.241,209.644,3.5970000000000084,4.430733814058541,0.30845709354221973
144.0,417.2166666666667,25773.0,216.538,212.893,3.6450000000000102,4.492597153505231,0.3127638713093685
145.0,420.2166666666667,25953.0,216.474,212.992,3.4819999999999993,4.294293138361185,0.29895841995162725
146.0,423.2166666666667,26133.0,213.901,210.757,3.1440000000000055,3.879776591111607,0.27010076910741165
147.0,426.2166666666667,26313.0,213.584,210.765,2.819000000000017,3.4807981190455477,0.24232484190345205
148.0,429.2166666666667,26493.0,214.021,210.321,3.6999999999999886,4.571338829038884,0.3182456784760931
149.0,432.2166666666667,26673.0,214.104,210.369,3.7350000000000136,4.617305441643622,0.3214457641321193
150.0,435.2166666666667,26853.0,215.311,212.3,3.0109999999999957,3.7244613895139382,0.25928809615564674
151.0,438.2166666666667,27033.0,215.112,211.76,3.352000000000004,4.148679598212746,0.2888211534717349
152.0,441.2166666666667,27213.0,214.94,211.882,3.0579999999999927,3.786997371169315,0.2636417016649693
153.0,444.2166666666667,27393.0,214.882,211.767,3.115000000000009,3.8598080867818596,0.26871060958385923
154.0,447.2166666666667,27573.0,214.379,211.198,3.180999999999983,3.943846449819174,0.2745611594693626
155.0,450.2166666666667,27753.0,212.596,209.12,3.475999999999999,4.312045374483147,0.30019428818200505
156.0,453.2166666666667,27933.0,214.353,211.028,3.325000000000017,4.127062208219621,0.28731620247104733
157.0,456.2166666666667,28113.0,211.681,208.316,3.365000000000009,4.179062415951288,0.29093633259252016
158.0,459.2166666666667,28293.0,212.424,209.328,3.0960000000000036,3.847138338706334,0.2678285720182333
159.0,462.2166666666667,28473.0,213.665,210.775,2.8899999999999864,3.5931588819509788,0.25014712954438995
160.0,465.2166666666667,28653.0,213.86,210.736,3.1240000000000236,3.8862436118123083,0.2705509876249146
161.0,468.2166666666667,28833.0,213.4,210.291,3.109000000000009,3.8697138411141667,0.269400224514233
162.0,471.2166666666667,29013.0,213.071,210.195,2.8760000000000048,3.5816643425192765,0.2493469071944353
163.0,474.2166666666667,29193.0,211.404,208.113,3.290999999999997,4.100723817382806,0.28548258668028936
164.0,477.2166666666667,29373.0,210.813,207.708,3.1049999999999898,3.8710579011664064,0.2694937947612076
165.0,480.2166666666667,29553.0,211.403,208.032,3.370999999999981,4.20495207691199,0.29273870888228803
166.0,483.2166666666667,29733.0,211.349,208.183,3.165999999999997,3.9513570733129133,0.2750840311178958
167.0,486.2166666666667,29913.0,209.972,207.274,2.6980000000000075,3.369063813630894,0.2345461667350621
168.0,489.2166666666667,30093.0,210.273,206.541,3.7319999999999993,4.662724218273994,0.3246077107575734
169.0,492.2166666666667,30273.0,211.511,208.028,3.483000000000004,4.35392827871748,0.3031100758260828
170.0,495.2166666666667,30453.0,210.008,206.427,3.5810000000000173,4.478790409949615,0.31180267883715657
171.0,498.2166666666667,30633.0,212.115,208.089,4.0260000000000105,5.037995237169014,0.35073318176007395
172.0,501.2166666666667,30813.0,209.362,206.426,2.936000000000007,3.6759242907853524,0.25590905940212144
173.0,504.2166666666667,30993.0,211.189,208.298,2.890999999999991,3.621463435236473,0.2521176248634163
174.0,507.2166666666667,31173.0,211.594,208.535,3.0589999999999975,3.8338930783639866,0.266906468664733
175.0,510.2166666666667,31353.0,209.599,206.084,3.5149999999999864,4.407673090622597,0.30685166111848394
176.0,513.2166666666666,31533.0,211.564,207.807,3.757000000000005,4.71354662782616,0.32814584538609304
177.0,516.2166666666666,31713.0,209.142,205.225,3.9170000000000016,4.916791669143197,0.34229527917121483
178.0,519.2166666666666,31893.0,209.142,205.523,3.6189999999999998,4.545037982269093,0.31641467641350757
179.0,522.2166666666666,32073.0,209.676,205.381,4.2949999999999875,5.396744944340817,0.3757084785455005
180.0,525.2166666666666,32253.0,209.226,205.562,3.6639999999999873,4.606203193140151,0.3206728521385578
181.0,528.2166666666666,32433.0,210.884,206.496,4.387999999999977,5.519150989893032,0.38423009474443154
182.0,531.2166666666666,32613.0,208.769,204.904,3.865000000000009,4.863762148351336,0.33860349073574325
183.0,534.2166666666666,32793.0,209.234,204.908,4.326000000000022,5.446602486436384,0.37917944140884396
184.0,537.2166666666666,32973.0,212.123,207.47,4.652999999999992,5.861216032525643,0.4080438450803384
185.0,540.2166666666666,33153.0,210.321,206.274,4.046999999999997,5.1003805973136735,0.35507630135998053
186.0,543.2166666666666,33333.0,211.652,206.882,4.769999999999982,6.01452967582742,0.41871717432958905
187.0,546.2166666666666,33513.0,209.051,204.779,4.271999999999991,5.389241841505242,0.3751861304672055
188.0,549.2166666666666,33693.0,209.442,204.846,4.596000000000004,5.800812436997481,0.4038386911943166
189.0,552.2166666666666,33873.0,212.108,207.272,4.836000000000013,6.1067019345701175,0.4251339865846568
190.0,555.2166666666666,34053.0,212.177,207.064,5.1129999999999995,6.459622195470636,0.4497034512598139
191.0,558.2166666666666,34233.0,211.761,206.913,4.847999999999985,6.127793376297196,0.4266023223246886
