"Frame","Time (aligned)","Time [ s]","Intensity Ch3-T2","background","Intensity (bg-subst)","bleach-Corrected","Normalized"
1.0,-12.333333333333334,0.0,270.999,260.9,10.099000000000046,10.099000000000046,1.0129183215799944
2.0,-9.333333333333334,180.0,268.779,258.421,10.358000000000004,10.392400206222675,1.0423460316936934
3.0,-6.333333333333333,360.0,268.616,258.761,9.854999999999961,9.920088799663004,0.9949737297632543
4.0,-3.3333333333333335,540.0,263.514,253.701,9.813000000000017,9.909665899277208,0.9939283245979136
5.0,-0.3333333333333333,720.0,265.107,255.7,9.407000000000039,9.529853734147597,0.9558335923651433
6.0,3.2166666666666663,933.0,281.778,271.849,9.92900000000003,10.090167095191658,1.0120323911796392
7.0,6.216666666666667,1113.0,279.824,270.317,9.507000000000005,9.691126444955044,0.9720090635551357
8.0,9.216666666666667,1293.0,278.581,269.379,9.201999999999998,9.408737586936768,0.9436857792599815
9.0,12.216666666666667,1473.0,277.127,266.819,10.307999999999993,10.571159331477716,1.0602753705510501
10.0,15.216666666666667,1653.0,274.243,264.945,9.298000000000002,9.563521288422361,0.9592104101260798
11.0,18.21666666666667,1833.0,272.328,262.919,9.408999999999992,9.705839474252262,0.9734847638166562
12.0,21.21666666666667,2013.0,270.027,259.565,10.461999999999989,10.822989609712044,1.085533663723853
13.0,24.21666666666667,2193.0,270.682,260.642,10.04000000000002,10.415759399476357,1.04468893245852
14.0,27.21666666666667,2373.0,268.276,258.273,10.002999999999986,10.406250425152484,1.0437351930474807
15.0,30.21666666666667,2553.0,266.471,256.913,9.557999999999993,9.970573722322857,1.0000373106252916
16.0,33.21666666666666,2733.0,267.086,257.703,9.383000000000038,9.814463415671531,0.9843796227557402
17.0,36.21666666666666,2913.0,266.868,257.348,9.519999999999982,9.984271348573289,1.0014111671052617
18.0,39.21666666666666,3093.0,263.909,255.075,8.834000000000003,9.289118933553329,0.9316881630984991
19.0,42.21666666666666,3273.0,262.856,253.783,9.073000000000008,9.565091149264292,0.9593678653997824
20.0,45.21666666666666,3453.0,264.314,254.866,9.448000000000008,9.9857981687625,1.0015643054499899
21.0,48.21666666666666,3633.0,263.495,254.365,9.129999999999995,9.673914543927852,0.9702827292745472
22.0,51.21666666666666,3813.0,261.781,253.189,8.592000000000013,9.126377442984628,0.915365374953309
23.0,54.21666666666666,3993.0,260.778,252.398,8.380000000000024,8.92288359574106,0.8949551713488126
24.0,57.21666666666666,4173.0,259.794,251.743,8.050999999999988,8.593155878076859,0.8618838527672873
25.0,60.21666666666666,4353.0,258.707,251.383,7.323999999999984,7.835698105889417,0.7859116916353117
26.0,63.21666666666666,4533.0,258.132,250.548,7.584000000000003,8.132784368062906,0.8157091090078479
27.0,66.21666666666667,4713.0,257.535,250.759,6.776000000000039,7.283015176533769,0.7304782165220495
28.0,69.21666666666667,4893.0,254.156,249.939,4.217000000000013,4.542802372885474,0.4556379596804385
29.0,72.21666666666667,5073.0,249.119,247.271,1.8480000000000132,1.9952182282479893,0.2001181403052534
30.0,75.21666666666667,5253.0,247.141,245.606,1.5349999999999966,1.6609287574434615,0.166589283023425
31.0,78.21666666666667,5433.0,246.208,244.911,1.296999999999997,1.4064458139432385,0.1410649305131783
32.0,81.21666666666667,5613.0,247.766,246.682,1.0840000000000032,1.1779833464591583,0.11815040243039808
33.0,84.21666666666667,5793.0,245.452,244.507,0.9449999999999932,1.0290942930868736,0.1032169981286367
34.0,87.21666666666667,5973.0,245.374,243.953,1.4209999999999923,1.5506643385438352,0.15552988604136714
35.0,90.21666666666667,6153.0,244.799,243.709,1.0900000000000034,1.1918940683538843,0.11954563216339857
36.0,93.21666666666667,6333.0,246.08,245.257,0.8230000000000075,0.901749111276114,0.09044441987127921
37.0,96.21666666666667,6513.0,245.932,244.891,1.0409999999999968,1.1428752796801487,0.11462910288829364
38.0,99.21666666666667,6693.0,243.053,241.973,1.079999999999984,1.1880146197728048,0.11915652784164364
39.0,102.21666666666667,6873.0,244.442,243.511,0.9310000000000116,1.026090177344142,0.10291568870434126
40.0,105.21666666666667,7053.0,244.422,243.387,1.0349999999999966,1.1428839045305146,0.11462996795106783
41.0,108.21666666666667,7233.0,241.903,241.436,0.46699999999998454,0.516645747001784,0.05181898632582306
42.0,111.21666666666667,7413.0,243.664,242.596,1.0679999999999836,1.1837225725882816,0.11872604034483314
43.0,114.21666666666667,7593.0,240.71,239.763,0.9470000000000027,1.0515260400184827,0.10546687707230168
44.0,117.21666666666667,7773.0,242.284,240.808,1.475999999999999,1.6418620054659179,0.16467690928235404
45.0,120.21666666666667,7953.0,239.266,238.324,0.9419999999999789,1.0497127981395395,0.10528501095480117
46.0,123.21666666666667,8133.0,241.495,240.451,1.0440000000000111,1.165409667918171,0.11688927663934716
47.0,126.21666666666667,8313.0,239.284,238.581,0.703000000000003,0.7861064984927607,0.07884559610222892
48.0,129.21666666666667,8493.0,241.027,240.319,0.7079999999999984,0.7930432184430686,0.07954134129772712
49.0,132.21666666666667,8673.0,238.562,237.721,0.8410000000000082,0.9435977547133355,0.09464179165767686
50.0,135.21666666666667,8853.0,239.951,239.092,0.8589999999999804,0.9653867044098703,0.09682719876289568
51.0,138.21666666666667,9033.0,237.389,236.452,0.9370000000000118,1.0547635147557424,0.10579159214082556
52.0,141.21666666666667,9213.0,236.911,235.729,1.181999999999988,1.3326945533171886,0.13366776216703047
53.0,144.21666666666667,9393.0,237.278,236.058,1.2199999999999989,1.3777203106525,0.13818379489779112
54.0,147.21666666666667,9573.0,239.608,237.866,1.7419999999999902,1.9702805664995882,0.19761692092884783
55.0,150.21666666666667,9753.0,238.436,237.557,0.8790000000000191,0.9957223621764485,0.09986983105806821
56.0,153.21666666666667,9933.0,238.397,237.196,1.2009999999999934,1.3625510531775382,0.13666233546406964
57.0,156.21666666666667,10113.0,235.129,234.6,0.5289999999999964,0.6010587493172135,0.06028551535096145
58.0,159.21666666666667,10293.0,235.187,233.675,1.5120000000000005,1.720504272710426,0.17256464008169578
59.0,162.21666666666667,10473.0,234.628,232.864,1.7639999999999816,2.010187868394325,0.2016195783458201
60.0,165.21666666666667,10653.0,236.196,235.051,1.1450000000000102,1.3066798525011873,0.13105851698563137
61.0,168.21666666666667,10833.0,233.888,232.737,1.1510000000000105,1.3153955210547006,0.1319326887217114
62.0,171.21666666666667,11013.0,233.684,232.221,1.4629999999999939,1.6743047856453421,0.16793088358146593
63.0,174.21666666666667,11193.0,234.595,233.665,0.9300000000000068,1.065796454565194,0.10689818357303496
64.0,177.21666666666667,11373.0,232.244,230.996,1.2479999999999905,1.4321851006180075,0.14364655196651757
65.0,180.21666666666667,11553.0,232.091,230.638,1.453000000000003,1.6696893417296017,0.16746795975688147
66.0,183.21666666666667,11733.0,234.1,232.972,1.127999999999986,1.2979472484907026,0.1301826466422981
67.0,186.21666666666667,11913.0,232.154,231.353,0.8009999999999877,0.9228919577909612,0.09256502355533133
68.0,189.21666666666667,12093.0,233.903,232.524,1.3789999999999907,1.5909102039918663,0.15956650100127936
69.0,192.21666666666667,12273.0,233.149,231.803,1.3460000000000036,1.5548278081407425,0.15594747735100656
70.0,195.21666666666667,12453.0,232.469,231.251,1.2179999999999893,1.4087478824305906,0.14129582538874724
71.0,198.21666666666667,12633.0,229.645,228.731,0.9140000000000157,1.0584588240177253,0.10616222749634262
72.0,201.21666666666667,12813.0,231.633,230.223,1.4099999999999966,1.634864743571554,0.1639750917980789
73.0,204.21666666666667,12993.0,229.48,228.218,1.2620000000000005,1.4650427406918056,0.14694213624561758
74.0,207.21666666666667,13173.0,232.016,230.507,1.5089999999999861,1.7538877898192102,0.17591296923490565
75.0,210.21666666666667,13353.0,231.39,230.089,1.3009999999999877,1.513927244658426,0.15184519691589576
76.0,213.21666666666667,13533.0,229.293,227.902,1.3910000000000196,1.6205544036468975,0.16253978082692114
77.0,216.21666666666667,13713.0,228.659,227.342,1.3169999999999789,1.536118733432183,0.15407097823702412
78.0,219.21666666666667,13893.0,228.278,226.811,1.4669999999999845,1.7130321337683205,0.17181519296457032
79.0,222.21666666666667,14073.0,227.74,226.633,1.1069999999999993,1.2941164934734781,0.12979842623013538
80.0,225.21666666666667,14253.0,229.48,228.058,1.421999999999997,1.6642163409949926,0.16691902394956332
81.0,228.21666666666667,14433.0,227.232,226.017,1.2150000000000034,1.4235249489957524,0.1427779485160925
82.0,231.21666666666667,14613.0,228.585,227.214,1.3710000000000093,1.6080485973486127,0.16128546254534246
83.0,234.21666666666667,14793.0,226.305,225.475,0.8300000000000125,0.9745566964694159,0.09774693863475001
84.0,237.21666666666667,14973.0,226.801,225.403,1.3979999999999961,1.6432286052259568,0.1648139776985547
85.0,240.21666666666667,15153.0,228.118,226.339,1.7789999999999964,2.0932599051016303,0.20995161003131319
86.0,243.21666666666667,15333.0,225.087,224.115,0.97199999999998,1.1448920925721642,0.11483138694904434
87.0,246.21666666666667,15513.0,226.749,225.127,1.6219999999999857,1.9124716831879416,0.19181875506525276
88.0,249.21666666666667,15693.0,224.095,222.57,1.5250000000000057,1.799926468757659,0.18053059686121456
89.0,252.21666666666667,15873.0,225.632,224.75,0.882000000000005,1.0420516309940868,0.10451660452185575
90.0,255.21666666666667,16053.0,223.832,222.651,1.1809999999999832,1.3966942685296377,0.14008686149514132
91.0,258.2166666666667,16233.0,225.199,224.345,0.8540000000000134,1.0109630505985205,0.10139845493530446
92.0,261.2166666666667,16413.0,224.617,223.744,0.8729999999999905,1.0344579973469832,0.10375497162270558
93.0,264.2166666666667,16593.0,225.018,223.894,1.1239999999999952,1.333157523715732,0.13371419757638128
94.0,267.2166666666667,16773.0,226.099,224.55,1.5489999999999782,1.8389864633107393,0.18444827030646951
95.0,270.2166666666667,16953.0,223.202,221.567,1.634999999999991,1.942908429609674,0.1948715264386419
96.0,273.2166666666667,17133.0,224.209,223.271,0.9380000000000166,1.1156820869991946,0.11190165630063217
97.0,276.2166666666667,17313.0,224.272,223.02,1.2519999999999811,1.490529801403271,0.1494984597190174
98.0,279.2166666666667,17493.0,221.638,220.743,0.8950000000000102,1.0664827353424347,0.10696701676176804
99.0,282.2166666666667,17673.0,220.687,220.489,0.1980000000000075,0.23614908547940236,0.023685487207292383
100.0,285.2166666666667,17853.0,221.006,220.169,0.8369999999999891,0.9991546666532286,0.10021408732995371
101.0,288.2166666666667,18033.0,223.042,222.172,0.8700000000000045,1.0394621459695434,0.10425688209143522
102.0,291.2166666666667,18213.0,220.863,220.172,0.6910000000000025,0.8263150960633845,0.08287847313602648
103.0,294.2166666666667,18393.0,220.888,219.711,1.1769999999999925,1.4086997609714738,0.1412909988606157
104.0,297.2166666666667,18573.0,220.559,219.387,1.171999999999997,1.4039127697840834,0.14081086903796497
105.0,300.2166666666667,18753.0,221.94,220.65,1.289999999999992,1.546568014882735,0.15511902939343664
106.0,303.2166666666667,18933.0,222.242,221.226,1.0159999999999911,1.2190910946067253,0.12227346325400106
107.0,306.2166666666667,19113.0,220.002,219.299,0.703000000000003,0.8442232658257972,0.08467464238628022
108.0,309.2166666666667,19293.0,221.615,220.732,0.8830000000000098,1.0612524517003756,0.10644242520536623
109.0,312.2166666666667,19473.0,219.649,218.672,0.9770000000000039,1.1751819550396396,0.11786942602731387
110.0,315.2166666666667,19653.0,221.156,220.281,0.875,1.053337999205044,0.10564861453720148
111.0,318.2166666666667,19833.0,219.178,218.066,1.1119999999999948,1.3397084539080992,0.13437124849382265
112.0,321.2166666666667,20013.0,221.235,219.332,1.90300000000002,2.2944935277469405,0.23013511565517186
113.0,324.2166666666667,20193.0,218.627,217.497,1.1299999999999955,1.363533515517445,0.13676087532983397
114.0,327.2166666666667,20373.0,218.566,217.386,1.1800000000000068,1.424969449193373,0.1429228302584131
115.0,330.2166666666667,20553.0,220.11,219.113,0.9970000000000141,1.2049021586863524,0.12085032896768853
116.0,333.2166666666667,20733.0,218.405,217.642,0.7630000000000052,0.922807687905698,0.09255657138078528
117.0,336.2166666666667,20913.0,220.611,219.268,1.3429999999999893,1.6255103574794976,0.16303685741251825
118.0,339.2166666666667,21093.0,220.477,219.684,0.7930000000000064,0.9605302672458242,0.09634010358703032
119.0,342.2166666666667,21273.0,220.378,219.101,1.2769999999999868,1.547925426792937,0.15525517627865046
120.0,345.2166666666667,21453.0,219.778,218.845,0.9329999999999927,1.1317727556820951,0.11351553224036713
121.0,348.2166666666667,21633.0,216.923,216.198,0.7249999999999943,0.8800985193594183,0.08827288989549224
122.0,351.2166666666667,21813.0,217.28,215.726,1.554000000000002,1.8878056431485313,0.1893447790402261
123.0,354.2166666666667,21993.0,218.811,218.302,0.5090000000000146,0.6187772954990612,0.062062665569731106
124.0,357.2166666666667,22173.0,218.911,217.517,1.3940000000000055,1.6958485868917754,0.17009170257334533
125.0,360.2166666666667,22353.0,216.402,215.366,1.035999999999973,1.26121523264628,0.12649846683861632
126.0,363.2166666666667,22533.0,218.595,217.699,0.8959999999999866,1.0915411207468069,0.10948034458484965
127.0,366.2166666666667,22713.0,217.113,216.7,0.4130000000000109,0.5034801090623969,0.050498487674066075
128.0,369.2166666666667,22893.0,219.226,217.929,1.296999999999997,1.5822313956208904,0.15869602629997792
129.0,372.2166666666667,23073.0,219.064,217.644,1.4199999999999875,1.7334596972743175,0.1738640545687354
130.0,375.2166666666667,23253.0,218.44,217.15,1.289999999999992,1.575825663957554,0.15805353863140495
131.0,378.2166666666667,23433.0,218.42,217.323,1.09699999999998,1.3409601023068716,0.13449678741800256
132.0,381.2166666666667,23613.0,218.616,217.266,1.3500000000000227,1.6513210846305466,0.1656256442651373
133.0,384.2166666666667,23793.0,215.814,214.957,0.8569999999999993,1.0489744483340446,0.10521095530119974
134.0,387.2166666666667,23973.0,217.558,216.247,1.3109999999999786,1.6057241965523223,0.16105232776434855
135.0,390.2166666666667,24153.0,214.967,214.395,0.5720000000000027,0.7010457242919217,0.07031409628682063
136.0,393.2166666666667,24333.0,215.748,214.05,1.697999999999979,2.0824183471703304,0.20886421398585478
137.0,396.2166666666667,24513.0,217.008,215.798,1.210000000000008,1.4848876944232177,0.1489325627458111
138.0,399.2166666666667,24693.0,216.554,216.049,0.5049999999999955,0.620119744823388,0.062197311724439826
139.0,402.2166666666667,24873.0,214.264,213.772,0.49200000000001864,0.6045375299566582,0.060634433129598084
140.0,405.2166666666667,25053.0,216.577,215.245,1.3319999999999936,1.637700375646184,0.16425950250029225
141.0,408.2166666666667,25233.0,214.528,213.25,1.2779999999999916,1.572284922948653,0.15769840629752185
142.0,411.2166666666667,25413.0,215.831,214.691,1.1399999999999864,1.4033744593703024,0.1407568771099705
143.0,414.2166666666667,25593.0,213.842,212.874,0.9680000000000177,1.1923687328353452,0.1195932404760904
144.0,417.2166666666667,25773.0,213.331,212.434,0.8969999999999914,1.1055856369531252,0.11088899373655842
145.0,420.2166666666667,25953.0,213.281,212.769,0.5120000000000005,0.6314411507297327,0.06333283598115637
146.0,423.2166666666667,26133.0,215.295,214.387,0.907999999999987,1.1204952750411203,0.11238441363827711
147.0,426.2166666666667,26313.0,212.931,212.098,0.8329999999999984,1.0285579401081655,0.10316320252917463
148.0,429.2166666666667,26493.0,215.257,214.132,1.125,1.3899341034239894,0.13940882455164028
149.0,432.2166666666667,26673.0,214.759,213.505,1.2539999999999907,1.55022785108997,0.15548610684152953
150.0,435.2166666666667,26853.0,214.366,213.187,1.179000000000002,1.4583659841371461,0.14627246508580533
151.0,438.2166666666667,27033.0,214.206,213.446,0.7599999999999909,0.940631412482591,0.09434427087407476
152.0,441.2166666666667,27213.0,212.209,211.403,0.8060000000000116,0.9981425379864353,0.10011257196502735
153.0,444.2166666666667,27393.0,212.097,210.972,1.125,1.3939916846322886,0.13981579537520547
154.0,447.2166666666667,27573.0,211.823,210.954,0.8689999999999998,1.0773978512709461,0.10806179059146986
155.0,450.2166666666667,27753.0,211.736,210.972,0.7639999999999816,0.9477568084306807,0.09505894005957154
156.0,453.2166666666667,27933.0,213.395,212.29,1.1050000000000182,1.3715499970173632,0.13756491939220394
157.0,456.2166666666667,28113.0,213.096,211.773,1.3230000000000075,1.6430607953353846,0.16479714655559966
158.0,459.2166666666667,28293.0,213.282,211.973,1.3089999999999975,1.6265840069013486,0.16314454323986222
159.0,462.2166666666667,28473.0,211.122,209.879,1.2430000000000234,1.54543131151044,0.15500501932590527
160.0,465.2166666666667,28653.0,211.062,209.776,1.2860000000000014,1.5997789003811127,0.16045602125686884
161.0,468.2166666666667,28833.0,212.855,211.883,0.97199999999998,1.2098301233717859,0.12134459827335986
162.0,471.2166666666667,29013.0,210.912,209.915,0.9970000000000141,1.2416270338983877,0.12453379257398711
163.0,474.2166666666667,29193.0,210.369,209.464,0.9050000000000011,1.127667898733348,0.1131038197133
164.0,477.2166666666667,29373.0,210.079,209.71,0.3689999999999998,0.4600387650661539,0.04614136981607484
165.0,480.2166666666667,29553.0,211.737,211.228,0.5089999999999861,0.6349215684212864,0.06368191795427508
166.0,483.2166666666667,29733.0,212.548,211.111,1.4370000000000118,1.793461817546023,0.17988219962833107
167.0,486.2166666666667,29913.0,211.862,211.007,0.8549999999999898,1.0676610676999154,0.10708520216961066
168.0,489.2166666666667,30093.0,211.38,210.709,0.6709999999999923,0.8383408227389643,0.08408463997234769
169.0,492.2166666666667,30273.0,211.22,210.478,0.7419999999999902,0.9275379795602422,0.09303101430417421
170.0,495.2166666666667,30453.0,211.294,210.193,1.100999999999999,1.3770310643268635,0.13811466426789518
171.0,498.2166666666667,30633.0,210.946,210.074,0.8719999999999857,1.0911902252387722,0.10944515016074345
172.0,501.2166666666667,30813.0,210.854,209.954,0.9000000000000057,1.1268160291916998,0.11301837815806369
173.0,504.2166666666667,30993.0,210.877,210.078,0.7990000000000066,1.0008818003299809,0.10038731689179153
174.0,507.2166666666667,31173.0,210.189,209.377,0.8119999999999834,1.0176924418540358,0.10207340529630966
175.0,510.2166666666667,31353.0,210.584,209.521,1.0630000000000166,1.3329605961114972,0.13369444595955246
176.0,513.2166666666666,31533.0,210.408,209.485,0.9229999999999734,1.1579993445524126,0.11614602955488247
177.0,516.2166666666666,31713.0,208.518,207.233,1.2849999999999966,1.6129888421876406,0.16178096353658342
178.0,519.2166666666666,31893.0,209.881,208.909,0.9720000000000084,1.2207175791007454,0.12243659781621105
179.0,522.2166666666666,32073.0,209.658,208.843,0.8149999999999977,1.024062195491913,0.10271228440946507
180.0,525.2166666666666,32253.0,209.667,208.87,0.796999999999997,1.0019497666301036,0.10049443270842924
181.0,528.2166666666666,32433.0,209.499,208.332,1.1670000000000016,1.4678325444861466,0.1472219504229521
182.0,531.2166666666666,32613.0,208.031,206.979,1.0519999999999925,1.3238493609483977,0.13278059933821101
183.0,534.2166666666666,32793.0,209.248,208.566,0.681999999999988,0.8586645621242556,0.08612308813418336
184.0,537.2166666666666,32973.0,209.152,208.684,0.4679999999999893,0.5895226957279053,0.05912846217348458
185.0,540.2166666666666,33153.0,209.038,207.655,1.3830000000000098,1.7429766162799274,0.17481859082240161
186.0,543.2166666666666,33333.0,209.246,207.964,1.2820000000000107,1.616483657109192,0.1621314895356497
187.0,546.2166666666666,33513.0,208.881,208.074,0.806999999999988,1.0180520051719741,0.10210946909198328
188.0,549.2166666666666,33693.0,208.719,209.29,-0.570999999999998,-0.7206840516809284,-0.07228379839767428
189.0,552.2166666666666,33873.0,207.42,205.843,1.5769999999999982,1.9913707507892966,0.1997322426510524
190.0,555.2166666666666,34053.0,208.839,207.653,1.186000000000007,1.4983594609482145,0.1502837657497934
