"Frame","Time (aligned)","Time [ s]","Intensity Ch3-T2","background","Intensity (bg-subst)","bleach-Corrected","Normalized"
1.0,-12.333333333333334,0.0,257.945,244.995,12.949999999999989,12.949999999999989,0.9871745130822818
2.0,-9.333333333333334,180.0,252.599,239.52,13.07899999999998,13.12243698563295,1.0003193314088914
3.0,-6.333333333333333,360.0,252.339,239.521,12.818000000000012,12.902658369769762,0.9835656751849037
4.0,-3.3333333333333335,540.0,251.451,238.515,12.936000000000007,13.063429947319863,0.9958212430447871
5.0,-0.3333333333333333,720.0,250.939,237.561,13.377999999999986,13.552714282494513,1.0331192372791365
6.0,3.2166666666666663,933.0,268.922,256.012,12.910000000000025,13.119554557248883,1.0000996047805875
7.0,6.216666666666667,1113.0,264.516,251.524,12.992000000000019,13.243622044057648,1.009557231103351
8.0,9.216666666666667,1293.0,264.086,251.137,12.949000000000012,13.239919910154786,1.009275018575712
9.0,12.216666666666667,1473.0,258.876,246.822,12.053999999999974,12.361734049440454,0.9423311807806218
10.0,15.216666666666667,1653.0,257.843,245.624,12.219000000000023,12.567935752122288,0.9580498730927205
11.0,18.21666666666667,1833.0,258.169,245.877,12.291999999999973,12.679793688756366,0.9665767691646228
12.0,21.21666666666667,2013.0,256.965,245.31,11.654999999999973,12.057153880825243,0.9191131282982096
13.0,24.21666666666667,2193.0,254.076,242.205,11.870999999999981,12.315286835775238,0.9387905239826305
14.0,27.21666666666667,2373.0,253.34,241.647,11.693000000000012,12.164379308338328,0.9272868896260295
15.0,30.21666666666667,2553.0,255.396,243.52,11.875999999999976,12.388630835562473,0.9443815145059874
16.0,33.21666666666666,2733.0,254.675,244.136,10.539000000000016,11.023620370644995,0.8403271870112281
17.0,36.21666666666666,2913.0,254.538,243.399,11.13900000000001,11.68222673863006,0.8905325476775252
18.0,39.21666666666666,3093.0,254.96,243.305,11.655000000000001,12.255454060512116,0.934229489945045
19.0,42.21666666666666,3273.0,251.998,240.447,11.550999999999988,12.177490120704467,0.9282863228162733
20.0,45.21666666666666,3453.0,250.286,239.179,11.107,11.739231610970046,0.894878011545907
21.0,48.21666666666666,3633.0,251.503,240.212,11.290999999999997,11.963654886691062,0.911985728760905
22.0,51.21666666666666,3813.0,250.209,239.594,10.615000000000009,11.275197457784191,0.8595048309107877
23.0,54.21666666666666,3993.0,247.716,236.964,10.75200000000001,11.448549453628603,0.8727194001841119
24.0,57.21666666666666,4173.0,247.527,236.624,10.902999999999992,11.637210102927844,0.8871009433972211
25.0,60.21666666666666,4353.0,247.203,236.289,10.914000000000016,11.676516811534327,0.8900972816929333
26.0,63.21666666666666,4533.0,247.987,237.569,10.418000000000006,11.171854898006245,0.8516270593949984
27.0,66.21666666666667,4713.0,246.17,235.512,10.657999999999987,11.455486385994151,0.8732482004026636
28.0,69.21666666666667,4893.0,245.733,235.131,10.602000000000004,11.42110285922022,0.8706271547423464
29.0,72.21666666666667,5073.0,247.261,236.888,10.37299999999999,11.199349935939516,0.8537229976717516
30.0,75.21666666666667,5253.0,246.578,235.659,10.919000000000011,11.814775962557142,0.9006367342095447
31.0,78.21666666666667,5433.0,245.547,235.019,10.527999999999992,11.416392852115989,0.8702681123508612
32.0,81.21666666666667,5613.0,244.763,234.384,10.379000000000019,11.278864532195193,0.8597843708641557
33.0,84.21666666666667,5793.0,242.452,232.068,10.383999999999986,11.30805834858641,0.8620098064997552
34.0,87.21666666666667,5973.0,243.561,233.544,10.016999999999996,10.9310377756465,0.8332696442979051
35.0,90.21666666666667,6153.0,243.637,233.523,10.114000000000004,11.059464777368031,0.8430595951003044
36.0,93.21666666666667,6333.0,243.333,233.303,10.030000000000001,10.98972489197976,0.8377433451079815
37.0,96.21666666666667,6513.0,241.046,230.637,10.408999999999992,11.427654933900762,0.8711266173780563
38.0,99.21666666666667,6693.0,239.849,230.298,9.550999999999988,10.506229290231676,0.8008866242405615
39.0,102.21666666666667,6873.0,241.28,231.68,9.599999999999994,10.580521699789081,0.8065499117487113
40.0,105.21666666666667,7053.0,241.231,231.591,9.639999999999986,10.644831729153799,0.811452245488049
41.0,108.21666666666667,7233.0,238.671,229.421,9.25,10.23334723718771,0.7800849093492431
42.0,111.21666666666667,7413.0,240.598,231.166,9.432000000000016,10.453999348925901,0.7969051518948591
43.0,114.21666666666667,7593.0,237.83,228.442,9.388000000000005,10.424209570954059,0.7946342862914473
44.0,117.21666666666667,7773.0,239.45,229.791,9.658999999999992,10.74440725663638,0.8190428572917191
45.0,120.21666666666667,7953.0,236.824,227.532,9.292000000000002,10.354491847465841,0.7893197256939426
46.0,123.21666666666667,8133.0,235.62,226.513,9.107,10.166078396293743,0.7749570263179605
47.0,126.21666666666667,8313.0,235.508,226.13,9.378000000000014,10.486638325554893,0.7993932110347224
48.0,129.21666666666667,8493.0,235.037,225.943,9.093999999999994,10.186348910340786,0.7765022413630815
49.0,132.21666666666667,8673.0,235.771,225.995,9.775999999999982,10.968622651697338,0.8361347278280011
50.0,135.21666666666667,8853.0,238.253,228.535,9.71799999999999,10.921569258970107,0.8325478621867368
51.0,138.21666666666667,9033.0,238.112,228.594,9.518,10.714236001542188,0.816742911804716
52.0,141.21666666666667,9213.0,238.313,228.908,9.405000000000001,10.604054377282816,0.8083438005090511
53.0,144.21666666666667,9393.0,237.557,228.528,9.028999999999996,10.196259577771663,0.7772577284901391
54.0,147.21666666666667,9573.0,234.698,225.703,8.995000000000005,10.173750686374229,0.7755418826287273
55.0,150.21666666666667,9753.0,234.012,225.174,8.837999999999994,10.011597539152735,0.7631809981381374
56.0,153.21666666666667,9933.0,233.56,224.633,8.926999999999992,10.127804539313855,0.7720394219837595
57.0,156.21666666666667,10113.0,235.001,226.529,8.472000000000008,9.626029724414881,0.7337892823254702
58.0,159.21666666666667,10293.0,235.165,226.456,8.709000000000003,9.909968062853903,0.7554338144485538
59.0,162.21666666666667,10473.0,235.13,226.42,8.710000000000008,9.925587490768011,0.7566244786296916
60.0,165.21666666666667,10653.0,235.152,225.662,9.48999999999998,10.830036506756446,0.8255703486656865
61.0,168.21666666666667,10833.0,232.68,223.446,9.234000000000009,10.552877707575158,0.8044426187330024
62.0,171.21666666666667,11013.0,233.809,225.568,8.240999999999985,9.431268447370675,0.7189426901375631
63.0,174.21666666666667,11193.0,231.435,222.921,8.51400000000001,9.757194638890327,0.743787943374179
64.0,177.21666666666667,11373.0,230.907,222.383,8.524000000000001,9.782007850695505,0.7456794468708418
65.0,180.21666666666667,11553.0,232.716,223.91,8.806000000000012,10.119259699429362,0.7713880514700653
66.0,183.21666666666667,11733.0,231.561,222.927,8.634000000000015,9.934819630734829,0.7573282418170624
67.0,186.21666666666667,11913.0,231.147,222.481,8.665999999999997,9.98474620002071,0.7611341288228275
68.0,189.21666666666667,12093.0,230.568,222.461,8.107,9.352798421872478,0.7129609442524096
69.0,192.21666666666667,12273.0,230.83,222.191,8.63900000000001,9.979314587316384,0.7607200786586078
70.0,195.21666666666667,12453.0,228.408,219.648,8.759999999999991,10.13188132191467,0.7723501938663003
71.0,198.21666666666667,12633.0,230.435,221.162,9.272999999999996,10.73860905373763,0.8186008620698406
72.0,201.21666666666667,12813.0,229.724,221.205,8.518999999999977,9.877597695380189,0.7529662313019008
73.0,204.21666666666667,12993.0,230.642,221.729,8.912999999999982,10.347009467342339,0.7887493461607291
74.0,207.21666666666667,13173.0,228.455,220.488,7.967000000000013,9.259923142140357,0.7058810902719511
75.0,210.21666666666667,13353.0,228.31,219.984,8.325999999999993,9.688668900096975,0.7385642474029873
76.0,213.21666666666667,13533.0,226.968,219.024,7.943999999999988,9.254985034198961,0.7055046598238743
77.0,216.21666666666667,13713.0,226.23,218.279,7.950999999999993,9.273864881943412,0.7069438648048932
78.0,219.21666666666667,13893.0,228.496,219.638,8.858000000000004,10.343584622303988,0.7884882712778629
79.0,222.21666666666667,14073.0,225.511,217.562,7.948999999999984,9.292621505529056,0.7083736764462234
80.0,225.21666666666667,14253.0,227.631,219.485,8.145999999999987,9.53354874384333,0.726739485648629
81.0,228.21666666666667,14433.0,225.61,217.42,8.190000000000026,9.595612619156556,0.7314705957561451
82.0,231.21666666666667,14613.0,227.765,219.999,7.765999999999991,9.108756679073105,0.6943577173319677
83.0,234.21666666666667,14793.0,227.078,219.885,7.193000000000012,8.445766647836644,0.6438181913656155
84.0,237.21666666666667,14973.0,226.886,219.18,7.705999999999989,9.057739364714765,0.6904686831651368
85.0,240.21666666666667,15153.0,225.003,216.905,8.097999999999985,9.528509674824624,0.7263553589687117
86.0,243.21666666666667,15333.0,224.013,216.562,7.450999999999993,8.77632817053021,0.669016794470539
87.0,246.21666666666667,15513.0,223.805,216.579,7.225999999999999,8.520049557778167,0.6494807547209713
88.0,249.21666666666667,15693.0,226.409,219.162,7.246999999999986,8.553486635466676,0.6520296528588901
89.0,252.21666666666667,15873.0,224.688,216.293,8.394999999999982,9.918393925391486,0.7560761153557227
90.0,255.21666666666667,16053.0,225.334,217.567,7.766999999999996,9.185541391761088,0.7002109923404559
91.0,258.2166666666667,16233.0,223.78,216.779,7.001000000000005,8.287766179438098,0.6317738643032134
92.0,261.2166666666667,16413.0,223.437,216.159,7.27800000000002,8.624038149703834,0.6574077730684874
93.0,264.2166666666667,16593.0,223.833,215.894,7.938999999999993,9.416314573647004,0.7178027609474581
94.0,267.2166666666667,16773.0,223.128,215.148,7.97999999999999,9.473926389425364,0.7221944919272874
95.0,270.2166666666667,16953.0,222.247,214.795,7.452000000000027,8.855384475505458,0.6750432322597301
96.0,273.2166666666667,17133.0,222.315,215.422,6.893000000000001,8.19871708495236,0.6249856792461187
97.0,276.2166666666667,17313.0,224.441,217.345,7.096000000000004,8.447922899966274,0.6439825618016117
98.0,279.2166666666667,17493.0,222.595,215.311,7.283999999999992,8.679620384619215,0.661644789723979
99.0,282.2166666666667,17673.0,221.31,214.572,6.7379999999999995,8.03622493919269,0.6125989530013313
100.0,285.2166666666667,17853.0,222.98,215.922,7.057999999999993,8.425368742220517,0.6422632653004032
101.0,288.2166666666667,18033.0,220.101,212.835,7.265999999999991,8.681301094959371,0.6617729097557686
102.0,291.2166666666667,18213.0,221.755,214.499,7.256,8.676906421180748,0.6614379051266128
103.0,294.2166666666667,18393.0,218.199,211.891,6.308000000000021,7.5497689823348715,0.5755165651753009
104.0,297.2166666666667,18573.0,220.363,214.024,6.338999999999999,7.593347310291233,0.5788385276989505
105.0,300.2166666666667,18753.0,217.793,211.387,6.406000000000006,7.6800889173169535,0.5854508136973744
106.0,303.2166666666667,18933.0,218.814,212.006,6.807999999999993,8.168870248112844,0.6227104640627908
107.0,306.2166666666667,19113.0,218.829,212.777,6.052000000000021,7.267765582898607,0.5540195328566876
108.0,309.2166666666667,19293.0,219.863,214.29,5.5730000000000075,6.698029346915217,0.5105887149924223
109.0,312.2166666666667,19473.0,217.097,211.387,5.710000000000008,6.868258918399515,0.5235652628180761
110.0,315.2166666666667,19653.0,218.799,212.833,5.966000000000008,7.181959432294057,0.5474785564132504
111.0,318.2166666666667,19833.0,215.412,210.645,4.766999999999996,5.743156654478358,0.4377990636247061
112.0,321.2166666666667,20013.0,217.759,212.024,5.734999999999985,6.914829417566228,0.5271153176318907
113.0,324.2166666666667,20193.0,215.085,210.305,4.780000000000001,5.767867437321606,0.4396827589931359
114.0,327.2166666666667,20373.0,215.388,210.786,4.602000000000004,5.557380851854127,0.4236374313854748
115.0,330.2166666666667,20553.0,217.048,212.364,4.6839999999999975,5.660743943116141,0.4315167680099735
116.0,333.2166666666667,20733.0,216.629,212.262,4.36699999999999,5.281652913609628,0.40261877554148295
117.0,336.2166666666667,20913.0,216.758,212.397,4.361000000000018,5.278369820527308,0.40236850636658383
118.0,339.2166666666667,21093.0,217.14,213.132,4.007999999999981,4.854735575184382,0.3700749982684075
119.0,342.2166666666667,21273.0,214.327,210.795,3.5320000000000107,4.281341117801666,0.32636531531312857
120.0,345.2166666666667,21453.0,215.06,212.0,3.0600000000000023,3.711923507381823,0.28295878617747716
121.0,348.2166666666667,21633.0,211.813,209.823,1.9899999999999807,2.4157186945175715,0.1841494923555329
122.0,351.2166666666667,21813.0,210.77,209.555,1.2150000000000034,1.475987037596827,0.1125140374637381
123.0,354.2166666666667,21993.0,211.195,209.293,1.9019999999999868,2.312209068839239,0.1762589854575918
124.0,357.2166666666667,22173.0,212.398,211.335,1.0629999999999882,1.2931757875652297,0.09857839215594617
125.0,360.2166666666667,22353.0,212.328,210.913,1.414999999999992,1.7226057472920104,0.1313137057772766
126.0,363.2166666666667,22533.0,211.696,210.567,1.1289999999999907,1.375390541655305,0.10484559754876854
127.0,366.2166666666667,22713.0,211.68,210.259,1.4210000000000207,1.732312917621447,0.1320536803829421
128.0,369.2166666666667,22893.0,212.392,211.127,1.2649999999999864,1.5431940751429525,0.11763720924484228
129.0,372.2166666666667,23073.0,212.833,211.015,1.818000000000012,2.219316711017435,0.16917782961961464
130.0,375.2166666666667,23253.0,212.233,210.683,1.5500000000000114,1.8934339373133657,0.1443358861097136
131.0,378.2166666666667,23433.0,211.639,210.299,1.3400000000000034,1.6380004896000413,0.12486427303084643
132.0,381.2166666666667,23613.0,210.125,208.31,1.8149999999999977,2.2201094582254726,0.16923826049522017
133.0,384.2166666666667,23793.0,211.842,210.473,1.3689999999999998,1.6756663007809893,0.12773552622099327
134.0,387.2166666666667,23973.0,210.299,208.799,1.5,1.8372130395335795,0.14005018438069358
135.0,390.2166666666667,24153.0,212.203,210.373,1.8300000000000125,2.242856075968915,0.17097222816279942
136.0,393.2166666666667,24333.0,210.951,209.769,1.181999999999988,1.4495986374295264,0.11050245784318402
137.0,396.2166666666667,24513.0,210.902,209.67,1.2319999999999993,1.5118856525036288,0.11525057782597366
138.0,399.2166666666667,24693.0,210.27,208.01,2.2600000000000193,2.7751893530710525,0.2115518299867993
139.0,402.2166666666667,24873.0,209.037,208.058,0.9790000000000134,1.202931385828362,0.09169908919509719
140.0,405.2166666666667,25053.0,210.974,208.802,2.171999999999997,2.670484396323967,0.20357020336949386
141.0,408.2166666666667,25233.0,207.962,206.456,1.5060000000000002,1.8527864584981906,0.1412373413137759
142.0,411.2166666666667,25413.0,207.741,206.293,1.4480000000000075,1.782531769445818,0.13588184799663128
143.0,414.2166666666667,25593.0,208.12,206.277,1.8430000000000177,2.2701813787350433,0.17305522758001787
144.0,417.2166666666667,25773.0,210.115,208.337,1.77800000000002,2.1914506828346685,0.16705361087035905
145.0,420.2166666666667,25953.0,210.015,208.36,1.6549999999999727,2.0410841883939246,0.15559121929248793
146.0,423.2166666666667,26133.0,208.235,206.296,1.9390000000000214,2.392775702978841,0.18240055517399642
147.0,426.2166666666667,26313.0,209.928,208.292,1.6359999999999957,2.020072977211233,0.1539895411327549
148.0,429.2166666666667,26493.0,207.145,205.465,1.6800000000000068,2.0756349277798325,0.1582250115187363
149.0,432.2166666666667,26673.0,206.612,204.985,1.6269999999999811,2.0113402820760533,0.1533238504711358
150.0,435.2166666666667,26853.0,208.829,207.461,1.367999999999995,1.6921498441896567,0.12899206166024593
151.0,438.2166666666667,27033.0,209.649,208.348,1.3009999999999877,1.6102124574208605,0.12274599989293156
152.0,441.2166666666667,27213.0,206.982,205.367,1.615000000000009,2.0000002467097753,0.1524594030664222
153.0,444.2166666666667,27393.0,206.604,204.665,1.9390000000000214,2.4026221124462555,0.18315114393628243
154.0,447.2166666666667,27573.0,207.932,206.031,1.900999999999982,2.3568852879931526,0.17966463988922285
155.0,450.2166666666667,27753.0,207.118,205.542,1.5759999999999934,1.9550585472340085,0.14903351115158975
156.0,453.2166666666667,27933.0,206.783,205.33,1.4529999999999745,1.8034951544490145,0.13747988038142564
157.0,456.2166666666667,28113.0,207.456,205.501,1.954999999999984,2.427954538836457,0.18508222700091098
158.0,459.2166666666667,28293.0,207.444,206.231,1.2129999999999939,1.5072928956236284,0.11490047338298372
159.0,462.2166666666667,28473.0,206.018,203.606,2.412000000000006,2.998857862721738,0.228602011616626
160.0,465.2166666666667,28653.0,207.537,206.15,1.3870000000000005,1.7254224998667198,0.1315284259588528
161.0,468.2166666666667,28833.0,204.827,203.2,1.6270000000000095,2.025096307331222,0.15437246804126853
162.0,471.2166666666667,29013.0,206.868,204.852,2.015999999999991,2.510652056508629,0.19138623331296814
163.0,474.2166666666667,29193.0,204.271,202.531,1.7399999999999807,2.1681128660729296,0.16527457628362752
164.0,477.2166666666667,29373.0,206.241,204.527,1.714000000000027,2.1368738301447174,0.16289323419238483
165.0,480.2166666666667,29553.0,207.115,204.737,2.3780000000000143,2.96629369293884,0.22611965497960967
166.0,483.2166666666667,29733.0,203.929,202.751,1.1779999999999973,1.4702143500829457,0.11207398727179277
167.0,486.2166666666667,29913.0,203.701,202.284,1.4170000000000016,1.7694453016734502,0.13488427058727573
168.0,489.2166666666667,30093.0,206.237,204.425,1.8119999999999834,2.2638950384545558,0.17257602179581247
169.0,492.2166666666667,30273.0,204.84,202.863,1.9770000000000039,2.4713511935183647,0.18839034062678067
170.0,495.2166666666667,30453.0,207.352,205.55,1.8019999999999925,2.253778363230699,0.17180483075811961
171.0,498.2166666666667,30633.0,204.426,202.65,1.775999999999982,2.222424128467972,0.16941470709518816
172.0,501.2166666666667,30813.0,206.217,204.593,1.6240000000000236,2.033276923785928,0.15499607391504364
173.0,504.2166666666667,30993.0,206.22,204.729,1.4909999999999854,1.8677281155093548,0.1423763392276476
174.0,507.2166666666667,31173.0,206.35,204.586,1.7639999999999816,2.210849097820859,0.1685323460725645
175.0,510.2166666666667,31353.0,204.314,202.19,2.1239999999999952,2.6634132701230193,0.20303117359618392
176.0,513.2166666666666,31533.0,203.607,202.218,1.38900000000001,1.7426447341098148,0.13284127157299308
177.0,516.2166666666666,31713.0,205.182,204.082,1.0999999999999943,1.3807686586820236,0.1052555697539539
178.0,519.2166666666666,31893.0,203.505,201.615,1.8899999999999864,2.3736175149180783,0.18094013239635764
179.0,522.2166666666666,32073.0,203.268,201.829,1.438999999999993,1.8081294470096436,0.1378331510765623
180.0,525.2166666666666,32253.0,205.899,204.065,1.8340000000000032,2.3056158996231115,0.17575639019808603
181.0,528.2166666666666,32433.0,204.587,202.949,1.6379999999999768,2.0602482501013464,0.1570520898164032
182.0,531.2166666666666,32613.0,206.528,204.775,1.752999999999986,2.2059961309339724,0.1681624059008605
183.0,534.2166666666666,32793.0,203.811,201.935,1.8760000000000048,2.3619570653154485,0.1800512599130529
184.0,537.2166666666666,32973.0,205.441,203.899,1.5420000000000016,1.9424017025907088,0.14806868378109495
185.0,540.2166666666666,33153.0,205.177,203.609,1.5679999999999836,1.9761296705183502,0.15063975639238641
186.0,543.2166666666666,33333.0,202.48,201.343,1.1370000000000005,1.4336520422255357,0.10928685380026357
187.0,546.2166666666666,33513.0,204.885,203.645,1.2399999999999807,1.5642930438825864,0.11924557713612309
188.0,549.2166666666666,33693.0,205.182,203.196,1.98599999999999,2.506617384655555,0.1910786715197631
189.0,552.2166666666666,33873.0,205.073,203.065,2.0080000000000098,2.5356198272574075,0.19328951879031758
190.0,555.2166666666666,34053.0,204.45,203.084,1.3659999999999854,1.7257664617666333,0.13155464606858763
191.0,558.2166666666666,34233.0,202.051,200.684,1.3669999999999902,1.7278658303214178,0.13171468028718605
192.0,561.2166666666666,34413.0,204.296,202.724,1.5720000000000027,1.987941110741966,0.15154013884424342
193.0,564.2166666666666,34593.0,204.103,202.893,1.210000000000008,1.5308940115369063,0.11669957918297512
