"Frame","Time (aligned)","Time [ s]","Intensity Ch3-T2","background","Intensity (bg-subst)","bleach-Corrected","Normalized"
1.0,-12.333333333333334,0.0,279.092,267.126,11.966000000000008,11.966000000000008,0.9836896696864973
2.0,-9.333333333333334,180.0,274.422,262.447,11.975000000000023,12.014770464328706,0.9876989461319222
3.0,-6.333333333333333,360.0,273.493,261.679,11.814000000000021,11.892027303827438,0.977608591877387
4.0,-3.3333333333333335,540.0,271.649,259.21,12.439000000000021,12.561534099776745,1.032646776647589
5.0,-0.3333333333333333,720.0,269.679,257.451,12.227999999999952,12.387695488588909,1.0183560156566045
6.0,3.2166666666666663,933.0,288.139,276.473,11.665999999999997,11.855362003475223,0.9745944453628936
7.0,6.216666666666667,1113.0,284.858,272.928,11.930000000000007,12.161053801232113,0.999724469060148
8.0,9.216666666666667,1293.0,282.99,270.756,12.234000000000037,12.508856296303499,1.0283162893420226
9.0,12.216666666666667,1473.0,278.264,266.721,11.543000000000006,11.837688413198238,0.973141551481752
10.0,15.216666666666667,1653.0,276.873,264.987,11.885999999999967,12.225426331919538,1.0050163454974534
11.0,18.21666666666667,1833.0,276.92,265.633,11.287000000000035,11.643087484949062,0.9571439814641923
12.0,21.21666666666667,2013.0,275.087,263.656,11.430999999999983,11.825424797229815,0.9721333956785478
13.0,24.21666666666667,2193.0,271.999,260.421,11.578000000000031,12.011320948918064,0.9874153716145502
14.0,27.21666666666667,2373.0,271.686,259.555,12.130999999999972,12.620036379838515,1.0374560770445362
15.0,30.21666666666667,2553.0,272.842,260.5,12.341999999999985,12.874745854876403,1.0583949939228616
16.0,33.21666666666666,2733.0,271.986,259.8,12.185999999999979,12.746355236424659,1.0478403787585926
17.0,36.21666666666666,2913.0,271.158,259.074,12.084000000000003,12.673312497495786,1.0418357499996138
18.0,39.21666666666666,3093.0,270.468,258.59,11.878000000000043,12.489942799722302,1.0267614664100007
19.0,42.21666666666666,3273.0,267.49,256.183,11.307000000000016,11.920256323678103,0.9799292165817555
20.0,45.21666666666666,3453.0,266.954,255.306,11.647999999999996,12.311026362166118,1.0120532722464433
21.0,48.21666666666666,3633.0,268.389,256.369,12.019999999999982,12.736084646003578,1.0469960637244293
22.0,51.21666666666666,3813.0,266.997,255.904,11.093000000000018,11.78292655668395,0.9686397403045868
23.0,54.21666666666666,3993.0,265.256,253.372,11.883999999999958,12.653884087325308,1.0402385975357051
24.0,57.21666666666666,4173.0,264.168,252.796,11.372000000000014,12.137792652526434,0.9978122384328024
25.0,60.21666666666666,4353.0,264.219,251.853,12.365999999999985,13.229962148747765,1.0875962808011486
26.0,63.21666666666666,4533.0,265.103,253.101,12.00200000000001,12.870474417918121,1.058043851652213
27.0,66.21666666666667,4713.0,262.38,250.742,11.638000000000005,12.508815027228387,1.0283128967327242
28.0,69.21666666666667,4893.0,262.068,250.44,11.627999999999986,12.526370877854415,1.0297561115834164
29.0,72.21666666666667,5073.0,263.626,251.526,12.099999999999966,13.063928875433133,1.0739471736823254
30.0,75.21666666666667,5253.0,262.814,251.017,11.797000000000025,12.764805571049251,1.049357126508256
31.0,78.21666666666667,5433.0,262.29,250.435,11.855000000000018,12.855370180645457,1.0568021767254527
32.0,81.21666666666667,5613.0,261.912,249.938,11.97399999999999,13.012151836256372,1.0696907355605525
33.0,84.21666666666667,5793.0,259.289,247.277,12.012,13.080931903237687,1.0753449425946378
34.0,87.21666666666667,5973.0,260.474,248.285,12.188999999999993,13.301229853983743,1.0934549892603573
35.0,90.21666666666667,6153.0,260.46,247.601,12.85899999999998,14.061069564185805,1.1559191772549546
36.0,93.21666666666667,6333.0,259.18,247.541,11.63900000000001,12.752682753514708,1.048360545330233
37.0,96.21666666666667,6513.0,257.371,245.383,11.987999999999971,13.161180454184082,1.0819419399683032
38.0,99.21666666666667,6693.0,257.433,244.999,12.433999999999997,13.677568316903026,1.1243926675387623
39.0,102.21666666666667,6873.0,258.287,246.626,11.660999999999973,12.852027452212528,1.0565273808514732
40.0,105.21666666666667,7053.0,258.394,246.025,12.369,13.658290835882108,1.1228079225163776
41.0,108.21666666666667,7233.0,255.682,243.522,12.159999999999997,13.452702962616488,1.1059071480600675
42.0,111.21666666666667,7413.0,256.961,244.675,12.286000000000001,13.617243002640311,1.1194335008614413
43.0,114.21666666666667,7593.0,254.555,242.639,11.915999999999997,13.231240013579939,1.0877013303109817
44.0,117.21666666666667,7773.0,256.262,243.923,12.338999999999999,13.725565911547404,1.1283384086403396
45.0,120.21666666666667,7953.0,254.048,242.119,11.929000000000002,13.293019075378822,1.0927800052979855
46.0,123.21666666666667,8133.0,253.136,240.824,12.311999999999983,13.743796773379644,1.1298371141771821
47.0,126.21666666666667,8313.0,253.326,240.906,12.419999999999987,13.888254212347135,1.141712535405804
48.0,129.21666666666667,8493.0,252.307,240.117,12.189999999999998,13.654232814718963,1.1224743245306217
49.0,132.21666666666667,8673.0,252.428,239.731,12.697000000000003,14.245969906771828,1.1711192906531966
50.0,135.21666666666667,8853.0,253.987,241.376,12.61099999999999,14.172865808280724,1.1651096177050566
51.0,138.21666666666667,9033.0,253.661,241.205,12.455999999999989,14.021488089431536,1.152665300618925
52.0,141.21666666666667,9213.0,254.48,241.63,12.849999999999994,14.488261429886666,1.1910373642233683
53.0,144.21666666666667,9393.0,254.266,241.611,12.655000000000001,14.291025025661806,1.17482313947641
54.0,147.21666666666667,9573.0,251.653,239.053,12.599999999999994,14.251168276633146,1.1715466333518252
55.0,150.21666666666667,9753.0,251.223,238.708,12.515000000000015,14.176866169098972,1.1654384756034295
56.0,153.21666666666667,9933.0,250.331,237.528,12.802999999999997,14.525179961558797,1.1940723281399543
57.0,156.21666666666667,10113.0,252.122,239.896,12.226000000000028,13.891388032424043,1.1419701575382049
58.0,159.21666666666667,10293.0,252.726,240.082,12.644000000000005,14.387603190575813,1.1827625463912674
59.0,162.21666666666667,10473.0,252.223,239.72,12.503000000000014,14.24794723272933,1.171281840805127
60.0,165.21666666666667,10653.0,251.485,239.066,12.419000000000011,14.17262627791451,1.1650899266180752
61.0,168.21666666666667,10833.0,248.687,236.316,12.37100000000001,14.13793048737408,1.1622376877131588
62.0,171.21666666666667,11013.0,250.146,237.33,12.815999999999974,14.667047254156358,1.2057348210527583
63.0,174.21666666666667,11193.0,247.604,234.727,12.87700000000001,14.757269833802056,1.2131517539935857
64.0,177.21666666666667,11373.0,247.315,234.262,13.052999999999997,14.979416761512013,1.2314137996179277
65.0,180.21666666666667,11553.0,247.899,235.08,12.818999999999988,14.730727922664627,1.2109698215349842
66.0,183.21666666666667,11733.0,246.329,234.05,12.278999999999996,14.128984276788593,1.161502246050466
67.0,186.21666666666667,11913.0,245.96,233.335,12.625,14.546205951449517,1.1958008129344082
68.0,189.21666666666667,12093.0,246.122,233.188,12.934000000000026,14.92156097058084,1.226657645191174
69.0,192.21666666666667,12273.0,245.68,233.348,12.331999999999994,14.245272310543518,1.1710619433187992
70.0,195.21666666666667,12453.0,243.398,230.995,12.402999999999992,14.345402287181244,1.179293334230088
71.0,198.21666666666667,12633.0,245.072,232.437,12.634999999999991,14.631977288253522,1.2028518222916955
72.0,201.21666666666667,12813.0,244.889,232.537,12.352000000000004,14.32187894510347,1.177359549456696
73.0,204.21666666666667,12993.0,245.266,232.787,12.478999999999985,14.486741966000803,1.1909124535658397
74.0,207.21666666666667,13173.0,243.834,231.294,12.539999999999992,14.575051613209466,1.1981721299566823
75.0,210.21666666666667,13353.0,243.976,230.857,13.119,15.266111854476616,1.2549821600808302
76.0,213.21666666666667,13533.0,242.366,230.268,12.098000000000013,14.094512706915825,1.158668439667237
77.0,216.21666666666667,13713.0,242.215,229.33,12.884999999999991,15.028769840754732,1.2354709711220462
78.0,219.21666666666667,13893.0,244.536,231.521,13.015000000000015,15.197759523513943,1.2493631159669263
79.0,222.21666666666667,14073.0,243.454,230.443,13.010999999999996,15.21025266177365,1.2503901401227042
80.0,225.21666666666667,14253.0,245.661,232.369,13.292000000000002,15.556092548878684,1.2788206201754175
81.0,228.21666666666667,14433.0,243.548,230.571,12.977000000000004,15.204183755652537,1.2498912331982819
82.0,231.21666666666667,14613.0,244.868,232.146,12.722000000000008,14.921658829663695,1.2266656898985857
83.0,234.21666666666667,14793.0,244.297,231.279,13.018,15.285275993540562,1.2565575875942547
84.0,237.21666666666667,14973.0,243.381,230.226,13.155000000000001,15.462569600677773,1.2711323736415832
85.0,240.21666666666667,15153.0,239.967,227.531,12.436000000000007,14.632816289962868,1.2029207941548354
86.0,243.21666666666667,15333.0,239.435,226.72,12.715000000000003,14.976649132773016,1.2311862809984995
87.0,246.21666666666667,15513.0,238.474,226.068,12.405999999999977,14.627696486824766,1.202499910195469
88.0,249.21666666666667,15693.0,240.395,227.526,12.869,15.189018837011297,1.2486445698346664
89.0,252.21666666666667,15873.0,237.811,225.257,12.554000000000002,14.832104507369268,1.2193036924293559
90.0,255.21666666666667,16053.0,239.718,226.994,12.72399999999999,15.047872881262785,1.237041375902873
91.0,258.2166666666667,16233.0,239.794,227.269,12.525000000000006,14.827063476283694,1.2188892840887704
92.0,261.2166666666667,16413.0,240.276,227.568,12.707999999999998,15.058295796432537,1.2378982131066592
93.0,264.2166666666667,16593.0,240.182,227.298,12.883999999999986,15.28149602807255,1.2562468477494733
94.0,267.2166666666667,16773.0,240.052,226.875,13.176999999999992,15.643850630759161,1.2860349540027054
95.0,270.2166666666667,16953.0,238.749,225.935,12.813999999999993,15.227173466066354,1.2517811496819153
96.0,273.2166666666667,17133.0,238.613,225.45,13.163000000000011,15.656421440479905,1.2870683633008744
97.0,276.2166666666667,17313.0,239.36,225.572,13.788000000000011,16.41487611960753,1.3494186919640225
98.0,279.2166666666667,17493.0,237.194,223.906,13.287999999999982,15.833991717575522,1.301665893571836
99.0,282.2166666666667,17673.0,237.366,223.257,14.109000000000009,16.827411348630122,1.383331999934211
100.0,285.2166666666667,17853.0,237.995,223.964,14.031000000000006,16.74927016464951,1.3769082430013346
101.0,288.2166666666667,18033.0,235.95,222.507,13.442999999999984,16.061482331343083,1.3203672279119487
102.0,291.2166666666667,18213.0,237.911,224.361,13.550000000000011,16.203429163037377,1.332036259499982
103.0,294.2166666666667,18393.0,236.791,223.134,13.65700000000001,16.34546528087303,1.3437126310391183
104.0,297.2166666666667,18573.0,238.834,224.71,14.123999999999995,16.918825904804127,1.3908469217599961
105.0,300.2166666666667,18753.0,235.978,222.355,13.623000000000019,16.332477571122215,1.3426449496155213
106.0,303.2166666666667,18933.0,235.557,222.162,13.394999999999982,16.072564185292524,1.3212782345349674
107.0,306.2166666666667,19113.0,235.148,221.745,13.402999999999992,16.095482833375684,1.3231623091933815
108.0,309.2166666666667,19293.0,236.112,222.931,13.180999999999983,15.84186700550677,1.302313297832556
109.0,312.2166666666667,19473.0,233.719,220.372,13.34699999999998,16.05440486582803,1.3197854102857813
110.0,315.2166666666667,19653.0,234.649,221.647,13.00200000000001,15.652000760758847,1.2867049522215999
111.0,318.2166666666667,19833.0,233.269,220.215,13.054000000000002,15.727117047946413,1.2928800412849137
112.0,321.2166666666667,20013.0,234.788,221.912,12.876000000000005,15.524907337503576,1.2762569756595656
113.0,324.2166666666667,20193.0,233.071,220.438,12.63300000000001,15.243822036753953,1.2531497797170512
114.0,327.2166666666667,20373.0,233.271,219.95,13.320999999999998,16.08645595991933,1.3224202364732929
115.0,330.2166666666667,20553.0,234.916,221.504,13.412000000000006,16.20877407452471,1.3324756489547271
116.0,333.2166666666667,20733.0,234.873,220.582,14.290999999999997,17.28420008893871,1.4208832589239042
117.0,336.2166666666667,20913.0,234.597,220.549,14.048000000000002,17.003104617924173,1.3977752269138204
118.0,339.2166666666667,21093.0,235.165,220.559,14.605999999999995,17.691683585614616,1.4543812788343018
119.0,342.2166666666667,21273.0,233.754,219.381,14.37299999999999,17.42234311612772,1.432239590930009
120.0,345.2166666666667,21453.0,234.914,220.662,14.251999999999981,17.288344387975695,1.4212239495599372
121.0,348.2166666666667,21633.0,232.057,218.604,13.452999999999975,16.330986732334242,1.342522392143108
122.0,351.2166666666667,21813.0,232.449,218.761,13.688000000000017,16.628239152778054,1.3669586394504694
123.0,354.2166666666667,21993.0,232.021,218.482,13.538999999999987,16.458989791280043,1.353045147180151
124.0,357.2166666666667,22173.0,233.68,219.944,13.736000000000018,16.71031290498233,1.3737056812518864
125.0,360.2166666666667,22353.0,232.921,219.595,13.325999999999993,16.222928755062508,1.333639263614826
126.0,363.2166666666667,22533.0,233.175,219.573,13.602000000000004,16.570471344194523,1.3622097177937715
127.0,366.2166666666667,22713.0,234.212,220.06,14.151999999999987,17.252422526515367,1.4182709189703975
128.0,369.2166666666667,22893.0,234.482,220.375,14.107,17.20935874944021,1.4147307725015261
129.0,372.2166666666667,23073.0,233.875,219.994,13.881,16.945178913989444,1.3930133251446486
130.0,375.2166666666667,23253.0,233.296,219.281,14.014999999999986,17.120307504159097,1.4074101315140826
131.0,378.2166666666667,23433.0,233.003,219.288,13.714999999999975,16.765057249898856,1.3782060528520985
132.0,381.2166666666667,23613.0,231.078,217.448,13.629999999999995,16.672226950751085,1.37057474695994
133.0,384.2166666666667,23793.0,233.477,219.122,14.35499999999999,17.570628011476327,1.4444296560917143
134.0,387.2166666666667,23973.0,231.195,217.477,13.71799999999999,16.80192565088108,1.3812368956720948
135.0,390.2166666666667,24153.0,233.219,218.671,14.548000000000002,17.830093001746206,1.465759509891964
136.0,393.2166666666667,24333.0,232.119,218.039,14.080000000000013,17.267638591377292,1.4195217869144017
137.0,396.2166666666667,24513.0,231.897,217.734,14.162999999999982,17.38054910422799,1.4288038281220095
138.0,399.2166666666667,24693.0,230.131,215.961,14.169999999999987,17.400191651777188,1.4304185841900752
139.0,402.2166666666667,24873.0,230.379,216.531,13.847999999999985,17.015519745608692,1.3987958380496304
140.0,405.2166666666667,25053.0,231.38,217.164,14.216000000000008,17.478640045184893,1.4368675959064934
141.0,408.2166666666667,25233.0,229.805,215.747,14.057999999999993,17.29513415243529,1.4217821161284236
142.0,411.2166666666667,25413.0,229.017,215.522,13.495000000000005,16.61275292035304,1.3656855618256278
143.0,414.2166666666667,25593.0,229.031,215.164,13.867000000000019,17.08117481221844,1.4041931479933532
144.0,417.2166666666667,25773.0,230.38,216.818,13.561999999999983,16.71566600708853,1.3741457440333207
145.0,420.2166666666667,25953.0,231.0,217.004,13.99600000000001,17.26103583127605,1.4189789934242623
146.0,423.2166666666667,26133.0,228.702,214.82,13.882000000000005,17.13074384154302,1.4082680721186227
147.0,426.2166666666667,26313.0,229.699,215.68,14.019000000000005,17.310148574281396,1.423016407593101
148.0,429.2166666666667,26493.0,227.447,213.542,13.905000000000001,17.179585518320508,1.412283202730037
149.0,432.2166666666667,26673.0,226.373,212.779,13.593999999999994,16.805261090683572,1.3815110923692009
150.0,435.2166666666667,26853.0,228.283,214.643,13.639999999999986,16.87202037627703,1.3869991769082228
151.0,438.2166666666667,27033.0,228.64,215.427,13.212999999999994,16.353372175174496,1.3443626335665841
152.0,441.2166666666667,27213.0,226.954,213.371,13.582999999999998,16.821054706537907,1.3828094390817955
153.0,444.2166666666667,27393.0,226.461,212.748,13.713000000000022,16.99182930787787,1.396848316834006
154.0,447.2166666666667,27573.0,227.842,214.178,13.664000000000016,16.940810402492783,1.3926542026616824
155.0,450.2166666666667,27753.0,227.546,213.689,13.857,17.189877086942747,1.4131292423204236
156.0,453.2166666666667,27933.0,227.667,213.954,13.712999999999994,17.02087340189935,1.3992359463889394
157.0,456.2166666666667,28113.0,228.33,214.655,13.675000000000011,16.98326256705312,1.3961440702643764
158.0,459.2166666666667,28293.0,229.09,215.091,13.998999999999995,17.39537777892438,1.4300228498597651
159.0,462.2166666666667,28473.0,226.799,213.236,13.563000000000017,16.862980593737515,1.386256042970371
160.0,465.2166666666667,28653.0,227.865,214.424,13.441000000000003,16.720550699861988,1.3745473002610362
161.0,468.2166666666667,28833.0,226.376,212.293,14.082999999999998,17.52884529572552,1.4409948219068978
162.0,471.2166666666667,29013.0,227.113,213.367,13.74600000000001,17.11876149244434,1.407283038437614
163.0,474.2166666666667,29193.0,224.837,211.169,13.667999999999978,17.03090037556614,1.400060234406175
164.0,477.2166666666667,29373.0,226.341,212.781,13.560000000000002,16.90548957804079,1.389750581557033
165.0,480.2166666666667,29553.0,227.168,213.389,13.778999999999996,17.187788391507155,1.4129575368112215
166.0,483.2166666666667,29733.0,225.309,211.833,13.475999999999999,16.818852785838555,1.382628425656639
167.0,486.2166666666667,29913.0,224.717,211.1,13.617000000000019,17.003907320315722,1.3978412147167956
168.0,489.2166666666667,30093.0,226.25,212.797,13.453000000000003,16.80804633130763,1.381740058809906
169.0,492.2166666666667,30273.0,224.344,210.753,13.591000000000008,16.98944566065152,1.396652364205497
170.0,495.2166666666667,30453.0,226.311,212.351,13.960000000000008,17.459903413263433,1.4353273124980146
171.0,498.2166666666667,30633.0,223.928,210.207,13.721000000000004,17.16997830332734,1.411493421838909
172.0,501.2166666666667,30813.0,225.001,211.424,13.576999999999998,16.998645809261788,1.3974086813664115
173.0,504.2166666666667,30993.0,224.394,210.885,13.509000000000015,16.92229316728112,1.3911319552115011
174.0,507.2166666666667,31173.0,224.696,210.769,13.926999999999992,17.454929356775175,1.4349184099421115
175.0,510.2166666666667,31353.0,222.777,209.006,13.770999999999987,17.268297619050916,1.4195759636413432
176.0,513.2166666666666,31533.0,222.856,209.265,13.591000000000008,17.051320792862732,1.4017389368585687
177.0,516.2166666666666,31713.0,224.696,211.307,13.38900000000001,16.806465064630657,1.3816100675266736
178.0,519.2166666666666,31893.0,223.22,209.09,14.129999999999995,17.745616659149565,1.4588149582000691
179.0,522.2166666666666,32073.0,222.922,209.165,13.757000000000005,17.28591855629729,1.4210245290716834
180.0,525.2166666666666,32253.0,225.095,211.062,14.032999999999987,17.641607371543643,1.45026466054259
181.0,528.2166666666666,32433.0,223.676,209.97,13.705999999999989,17.23917125512175,1.417181570919243
182.0,531.2166666666666,32613.0,225.509,211.806,13.702999999999975,17.244018814711016,1.4175800745370895
183.0,534.2166666666666,32793.0,223.35,209.557,13.793000000000006,17.365924201437053,1.4276015578733372
184.0,537.2166666666666,32973.0,225.018,211.142,13.876000000000005,17.479095995556847,1.4369050782456863
185.0,540.2166666666666,33153.0,224.754,210.965,13.788999999999987,17.378094404832773,1.4286020345036525
186.0,543.2166666666666,33333.0,222.831,209.337,13.494,17.014688353378514,1.3987274917393944
187.0,546.2166666666666,33513.0,224.858,210.514,14.343999999999994,18.09533824310658,1.4875645411354623
188.0,549.2166666666666,33693.0,224.679,210.283,14.396000000000015,18.169820679507346,1.493687523189659
189.0,552.2166666666666,33873.0,223.78,210.417,13.363,16.874246888267216,1.387182211911079
190.0,555.2166666666666,34053.0,223.597,210.128,13.469000000000023,17.016360522353636,1.3988649558332267
191.0,558.2166666666666,34233.0,221.936,208.526,13.409999999999997,16.95002251983202,1.3934115037366073
192.0,561.2166666666666,34413.0,223.892,210.192,13.699999999999989,17.324932071987828,1.424231715463371
193.0,564.2166666666666,34593.0,223.604,210.267,13.337000000000018,16.873994571791414,1.3871614697156305
