"Frame","Time (aligned)","Time [ s]","Intensity Ch3-T2","background","Intensity (bg-subst)","bleach-Corrected","Normalized"
1.0,-12.333333333333334,0.0,254.839,246.396,8.443000000000012,8.443000000000012,0.9618091512672264
2.0,-9.333333333333334,180.0,251.283,242.241,9.041999999999973,9.072029606551952,1.0334669070412024
3.0,-6.333333333333333,360.0,252.848,243.985,8.863,8.921536989488944,1.0163230984080913
4.0,-3.3333333333333335,540.0,251.157,242.842,8.314999999999998,8.39690940104859,0.9565586052694929
5.0,-0.3333333333333333,720.0,249.323,240.382,8.941000000000003,9.057767857660608,1.031842238013988
6.0,3.2166666666666663,933.0,268.771,260.004,8.766999999999996,8.909305561843585,1.0149297193908735
7.0,6.216666666666667,1113.0,268.61,260.109,8.501000000000033,8.66564277990566,0.9871721576840009
8.0,9.216666666666667,1293.0,266.788,258.242,8.545999999999992,8.73799950206059,0.9954148862786133
9.0,12.216666666666667,1473.0,263.246,254.824,8.421999999999969,8.637010466599248,0.9839104235894779
10.0,15.216666666666667,1653.0,262.506,253.964,8.541999999999973,8.785932334448649,1.0008752957109233
11.0,18.21666666666667,1833.0,262.33,253.815,8.514999999999986,8.783635149671374,1.0006136051576915
12.0,21.21666666666667,2013.0,257.172,248.948,8.224000000000018,8.507767783432627,0.9691873636103251
13.0,24.21666666666667,2193.0,255.698,247.557,8.14100000000002,8.44568697919692,0.9621152463970204
14.0,27.21666666666667,2373.0,255.997,247.949,8.048000000000002,8.37243861057956,0.9537709432759056
15.0,30.21666666666667,2553.0,252.87,244.674,8.195999999999998,8.549782614371018,0.9739736065198941
16.0,33.21666666666666,2733.0,254.76,246.4,8.359999999999985,8.74442226953144,0.9961465547057038
17.0,36.21666666666666,2913.0,252.279,244.322,7.956999999999994,8.345046966449344,0.9506505436557828
18.0,39.21666666666666,3093.0,251.72,243.639,8.080999999999989,8.49732511909037,0.9679977568203222
19.0,42.21666666666666,3273.0,252.731,245.091,7.639999999999986,8.054369710170727,0.9175371899717817
20.0,45.21666666666666,3453.0,252.273,244.617,7.656000000000006,8.091794113044633,0.9218005007813084
21.0,48.21666666666666,3633.0,251.974,244.358,7.6159999999999854,8.069718857234875,0.9192857331567211
22.0,51.21666666666666,3813.0,249.592,241.49,8.102000000000004,8.605902006873997,0.9803666120005197
23.0,54.21666666666666,3993.0,250.623,243.029,7.593999999999994,8.085963964923314,0.9211363423285869
24.0,57.21666666666666,4173.0,250.498,242.311,8.186999999999983,8.738314144058528,0.9954507296462538
25.0,60.21666666666666,4353.0,247.763,239.922,7.841000000000008,8.388818794139693,0.95563694001256
26.0,63.21666666666666,4533.0,248.921,241.414,7.507000000000005,8.05021258584497,0.9170636189402206
27.0,66.21666666666667,4713.0,246.826,238.604,8.22199999999998,8.837212334926233,1.006717007630422
28.0,69.21666666666667,4893.0,248.427,240.427,8.0,8.618074219370092,0.9817532453500297
29.0,72.21666666666667,5073.0,247.74,240.328,7.412000000000006,8.002466183860392,0.911624447275072
30.0,75.21666666666667,5253.0,247.756,240.018,7.7379999999999995,8.372812198760608,0.9538135016711842
31.0,78.21666666666667,5433.0,247.299,239.328,7.971000000000004,8.643623425552494,0.9846637582380847
32.0,81.21666666666667,5613.0,246.112,238.717,7.394999999999982,8.036150227920137,0.9154616641207846
33.0,84.21666666666667,5793.0,245.883,237.886,7.997000000000014,8.708642393455875,0.9920705849981726
34.0,87.21666666666667,5973.0,243.19,235.987,7.203000000000003,7.860264060894659,0.8954250746352438
35.0,90.21666666666667,6153.0,244.793,237.302,7.491000000000014,8.191264647742143,0.9331319789944446
36.0,93.21666666666667,6333.0,244.628,236.755,7.8729999999999905,8.626331413216006,0.9826938878473397
37.0,96.21666666666667,6513.0,244.416,236.515,7.9010000000000105,8.674214778821224,0.9881486621257446
38.0,99.21666666666667,6693.0,241.884,234.016,7.867999999999995,8.65490650775237,0.985949103697559
39.0,102.21666666666667,6873.0,240.826,233.584,7.24199999999999,7.981681057278382,0.9092566485119754
40.0,105.21666666666667,7053.0,242.554,234.931,7.6229999999999905,8.417588409889982,0.9589143153183838
41.0,108.21666666666667,7233.0,240.227,232.555,7.671999999999997,8.487593513913954,0.9668891524243496
42.0,111.21666666666667,7413.0,241.91,234.262,7.647999999999996,8.476694976737184,0.9656476135410091
43.0,114.21666666666667,7593.0,239.572,231.603,7.968999999999994,8.84858607487567,1.0080126806337977
44.0,117.21666666666667,7773.0,239.136,231.269,7.86699999999999,8.751035499322741,0.9968999202076232
45.0,120.21666666666667,7953.0,238.717,231.017,7.700000000000017,8.580454931714069,0.9774677336679598
46.0,123.21666666666667,8133.0,239.087,232.202,6.884999999999991,7.68567582721888,0.875536343040675
47.0,126.21666666666667,8313.0,236.647,229.027,7.6200000000000045,8.520812970860334,0.9706734444640459
48.0,129.21666666666667,8493.0,236.871,229.271,7.600000000000023,8.51289330532112,0.9697712524954812
49.0,132.21666666666667,8673.0,238.613,231.145,7.467999999999989,8.379058302258159,0.9545250449027023
50.0,135.21666666666667,8853.0,237.622,230.104,7.518000000000001,8.449100400178779,0.9625040962770961
51.0,138.21666666666667,9033.0,235.397,228.259,7.138000000000005,8.035114160433723,0.9153436374490135
52.0,141.21666666666667,9213.0,237.282,229.386,7.896000000000015,8.902670214037773,1.0141738342503464
53.0,144.21666666666667,9393.0,236.54,229.3,7.239999999999981,8.175979548462362,0.9313907320010392
54.0,147.21666666666667,9573.0,235.516,228.557,6.959000000000003,7.87094286008652,0.896641581420424
55.0,150.21666666666667,9753.0,233.337,226.232,7.10499999999999,8.048472563439708,0.9168653991755883
56.0,153.21666666666667,9933.0,235.139,227.45,7.689000000000021,8.723276476171671,0.9937376695269483
57.0,156.21666666666667,10113.0,234.465,227.431,7.033999999999992,7.992149797159364,0.9104492257735843
58.0,159.21666666666667,10293.0,234.341,227.058,7.2830000000000155,8.287323160152154,0.9440747666638826
59.0,162.21666666666667,10473.0,233.768,226.874,6.8940000000000055,7.856142383622808,0.8949555416589752
60.0,165.21666666666667,10653.0,231.629,224.475,7.153999999999996,8.164181366631794,0.9300467074537273
61.0,168.21666666666667,10833.0,233.354,225.714,7.640000000000015,8.731209192752251,0.9946413482432354
62.0,171.21666666666667,11013.0,233.14,225.784,7.3559999999999945,8.418445661795749,0.9590119716879097
63.0,174.21666666666667,11193.0,232.734,225.483,7.251000000000005,8.309774292529214,0.946632353371992
64.0,177.21666666666667,11373.0,230.464,223.134,7.3300000000000125,8.411792297700396,0.9582540341688262
65.0,180.21666666666667,11553.0,230.205,222.565,7.640000000000015,8.77937134949357,1.0001278818330217
66.0,183.21666666666667,11733.0,229.568,222.402,7.166000000000025,8.245647147769969,0.9393271212656222
67.0,186.21666666666667,11913.0,229.264,221.922,7.342000000000013,8.459266859052875,0.9636622383096778
68.0,189.21666666666667,12093.0,228.894,221.497,7.396999999999991,8.533693095669253,0.9721407217245793
69.0,192.21666666666667,12273.0,230.5,223.224,7.2760000000000105,8.40484928085589,0.9574631000057977
70.0,195.21666666666667,12453.0,230.682,223.343,7.338999999999999,8.488342125745643,0.9669744327406431
71.0,198.21666666666667,12633.0,230.744,223.151,7.592999999999989,8.793082987709452,1.0016898833863679
72.0,201.21666666666667,12813.0,228.18,220.935,7.2450000000000045,8.400422033458117,0.9569587571108431
73.0,204.21666666666667,12993.0,229.613,222.31,7.302999999999997,8.477977127791005,0.9657936735453765
74.0,207.21666666666667,13173.0,227.366,219.924,7.442000000000007,8.649723612879187,0.9853586790002851
75.0,210.21666666666667,13353.0,226.961,219.806,7.155000000000001,8.326018013475128,0.9484828045690087
76.0,213.21666666666667,13533.0,227.154,219.671,7.483000000000004,8.717906975190202,0.9931259870465841
77.0,216.21666666666667,13713.0,228.554,221.341,7.212999999999994,8.413078530179579,0.958400559120755
78.0,219.21666666666667,13893.0,228.863,221.483,7.3799999999999955,8.617707666810041,0.9817114884381883
79.0,222.21666666666667,14073.0,229.223,221.527,7.696000000000026,8.996856850742482,1.0249033816990816
80.0,225.21666666666667,14253.0,228.524,221.66,6.864000000000004,8.033179299992728,0.9151232221370895
81.0,228.21666666666667,14433.0,227.71,220.83,6.8799999999999955,8.060783250280446,0.918267807236918
82.0,231.21666666666667,14613.0,225.872,218.895,6.977000000000004,8.183337026769658,0.9322288807593251
83.0,234.21666666666667,14793.0,227.563,220.892,6.670999999999992,7.832852677285985,0.8923024263344362
84.0,237.21666666666667,14973.0,225.755,218.875,6.8799999999999955,8.086847499252222,0.921236992737565
85.0,240.21666666666667,15153.0,228.149,221.016,7.13300000000001,8.393042666155132,0.9561181148033016
86.0,243.21666666666667,15333.0,225.236,218.709,6.526999999999987,7.68797395907269,0.8757981414829127
87.0,246.21666666666667,15513.0,224.988,218.397,6.591000000000008,7.771332221881535,0.8852941429045975
88.0,249.21666666666667,15693.0,224.459,217.157,7.3019999999999925,8.618402016307124,0.9817905873012076
89.0,252.21666666666667,15873.0,224.105,217.196,6.908999999999992,8.162737776120291,0.9298822565992152
90.0,255.21666666666667,16053.0,226.308,219.078,7.22999999999999,8.550465335706528,0.9740513807267233
91.0,258.2166666666667,16233.0,224.188,217.141,7.046999999999997,8.342220863662364,0.9503285998534686
92.0,261.2166666666667,16413.0,226.238,218.939,7.299000000000007,8.648922019055806,0.9852673630847424
93.0,264.2166666666667,16593.0,223.971,216.624,7.347000000000008,8.71415331560457,0.9926983778863089
94.0,267.2166666666667,16773.0,225.604,218.438,7.166000000000025,8.507538409351188,0.9691612337879171
95.0,270.2166666666667,16953.0,223.594,216.323,7.270999999999987,8.640297976570025,0.9842849299467888
96.0,273.2166666666667,17133.0,223.006,215.939,7.067000000000007,8.405677301517246,0.9575574264122327
97.0,276.2166666666667,17313.0,224.719,217.907,6.811999999999983,8.109815500925887,0.9238534601302041
98.0,279.2166666666667,17493.0,224.461,217.443,7.018000000000001,8.362654566070528,0.9526563650992869
99.0,282.2166666666667,17673.0,222.507,215.585,6.921999999999997,8.25567661458768,0.9404696574456063
100.0,285.2166666666667,17853.0,222.085,215.206,6.879000000000019,8.211690504071289,0.935458850431119
101.0,288.2166666666667,18033.0,221.79,214.907,6.882999999999981,8.223698793917599,0.9368268100503598
102.0,291.2166666666667,18213.0,223.845,216.885,6.960000000000008,8.322942212157947,0.9481324156249906
103.0,294.2166666666667,18393.0,223.106,216.156,6.949999999999989,8.31815067013746,0.9475865730377602
104.0,297.2166666666667,18573.0,220.935,214.322,6.6129999999999995,7.921565824728811,0.9024084451723171
105.0,300.2166666666667,18753.0,221.018,213.904,7.114000000000004,8.528902990601434,0.971595042832034
106.0,303.2166666666667,18933.0,222.814,215.969,6.844999999999999,8.213266282069986,0.9356383598116131
107.0,306.2166666666667,19113.0,222.736,215.456,7.280000000000001,8.742454303288447,0.9959223680490774
108.0,309.2166666666667,19293.0,220.215,213.449,6.765999999999991,8.131861934546606,0.9263649443904448
109.0,312.2166666666667,19473.0,222.167,215.213,6.954000000000008,8.364601141602488,0.952878114970218
110.0,315.2166666666667,19653.0,220.143,212.797,7.346000000000004,8.843223933897436,1.0074018365898263
111.0,318.2166666666667,19833.0,219.923,212.697,7.225999999999999,8.705695402823713,0.9917348699017953
112.0,321.2166666666667,20013.0,219.593,212.568,7.024999999999977,8.470213889869697,0.9649093014885034
113.0,324.2166666666667,20193.0,219.796,212.969,6.826999999999998,8.237914434015604,0.9384462264589092
114.0,327.2166666666667,20373.0,221.393,214.478,6.914999999999992,8.350562492518733,0.9512788610130719
115.0,330.2166666666667,20553.0,219.186,212.006,7.180000000000007,8.677229186928683,0.9884920572818986
116.0,333.2166666666667,20733.0,220.79,214.027,6.763000000000005,8.179486754005502,0.9317902656249605
117.0,336.2166666666667,20913.0,220.674,213.831,6.843000000000018,8.282477569793238,0.9435227670013814
118.0,339.2166666666667,21093.0,218.093,211.204,6.888999999999982,8.344379585190936,0.9505745169589072
119.0,342.2166666666667,21273.0,217.796,211.172,6.623999999999995,8.02933283247965,0.9146850404890816
120.0,345.2166666666667,21453.0,219.635,212.598,7.036999999999978,8.536211020080323,0.9724275584817469
121.0,348.2166666666667,21633.0,219.422,212.423,6.998999999999995,8.496289016547053,0.967879726154941
122.0,351.2166666666667,21813.0,219.069,212.376,6.692999999999984,8.130684150317293,0.9262307736395303
123.0,354.2166666666667,21993.0,217.257,210.424,6.832999999999998,8.306690098516627,0.9462810083494184
124.0,357.2166666666667,22173.0,217.475,210.293,7.181999999999988,8.737148171489714,0.9953179044553487
125.0,360.2166666666667,22353.0,217.384,210.216,7.167999999999978,8.726245933985274,0.9940759440383098
126.0,363.2166666666667,22533.0,216.879,210.113,6.765999999999991,8.242597347068076,0.9389796942580868
127.0,366.2166666666667,22713.0,218.63,211.797,6.832999999999998,8.329974782622921,0.9489335515518109
128.0,369.2166666666667,22893.0,219.079,212.405,6.674000000000007,8.141721152177222,0.9274880861340741
129.0,372.2166666666667,23073.0,217.139,210.576,6.563000000000017,8.011757741698222,0.9126829223855722
130.0,375.2166666666667,23253.0,218.753,211.907,6.845999999999975,8.362870151514297,0.9526809241485226
131.0,378.2166666666667,23433.0,218.555,211.754,6.801000000000016,8.313463678932745,0.947052640663888
132.0,381.2166666666667,23613.0,218.258,211.435,6.8230000000000075,8.345899081802994,0.9507476148798828
133.0,384.2166666666667,23793.0,218.007,211.011,6.996000000000009,8.563156640075835,0.9754971479521073
134.0,387.2166666666667,23973.0,217.273,210.589,6.6839999999999975,8.186621304161626,0.9326030188679233
135.0,390.2166666666667,24153.0,215.157,208.709,6.4480000000000075,7.9026972556543615,0.9002589766887066
136.0,393.2166666666667,24333.0,214.986,208.629,6.356999999999999,7.796191656632481,0.8881260784534298
137.0,396.2166666666667,24513.0,216.958,210.152,6.806000000000012,8.352186486152371,0.9514638630192821
138.0,399.2166666666667,24693.0,214.559,207.668,6.890999999999991,8.461871607085149,0.9639589658347503
139.0,402.2166666666667,24873.0,216.268,209.486,6.782000000000011,8.333279528792493,0.9493100214213489
140.0,405.2166666666667,25053.0,214.161,207.404,6.757000000000005,8.307763842523519,0.9464033270527166
141.0,408.2166666666667,25233.0,216.302,209.719,6.582999999999998,8.098866704046205,0.922606195765139
142.0,411.2166666666667,25413.0,214.631,208.329,6.3019999999999925,7.757952493817316,0.8837699518713591
143.0,414.2166666666667,25593.0,214.105,207.634,6.471000000000004,7.970886436133658,0.9080269475287398
144.0,417.2166666666667,25773.0,216.071,209.319,6.7520000000000095,8.32208943222696,0.9480352686936107
145.0,420.2166666666667,25953.0,215.398,208.714,6.6839999999999975,8.243266897417048,0.939055968053287
146.0,423.2166666666667,26133.0,213.085,207.028,6.057000000000016,7.474493260929715,0.851478860529125
147.0,426.2166666666667,26313.0,213.659,206.976,6.682999999999993,8.251924026101891,0.9400421703028168
148.0,429.2166666666667,26493.0,213.249,206.719,6.530000000000001,8.067795284763246,0.9190666037469926
149.0,432.2166666666667,26673.0,215.28,208.651,6.628999999999991,8.194944517444556,0.9335511821633717
150.0,435.2166666666667,26853.0,212.625,206.467,6.157999999999987,7.617148202134446,0.867729817289068
151.0,438.2166666666667,27033.0,215.677,208.878,6.799000000000007,8.414938122985815,0.9586124000989225
152.0,441.2166666666667,27213.0,215.363,208.636,6.727000000000004,8.330651182425132,0.9490106056226011
153.0,444.2166666666667,27393.0,214.684,208.298,6.385999999999996,7.912916353832702,0.9014231152822901
154.0,447.2166666666667,27573.0,212.85,206.097,6.752999999999986,8.372459942039914,0.9537733733118855
155.0,450.2166666666667,27753.0,212.701,205.925,6.775999999999982,8.40575933760004,0.9575667717936334
156.0,453.2166666666667,27933.0,212.826,206.253,6.5730000000000075,8.15855034424886,0.9294052329945426
157.0,456.2166666666667,28113.0,214.262,207.697,6.564999999999998,8.153207952665712,0.9287966387609378
158.0,459.2166666666667,28293.0,212.268,205.577,6.6910000000000025,8.314341932908288,0.9471526895458984
159.0,462.2166666666667,28473.0,213.803,207.58,6.222999999999985,7.737103018124911,0.8813948225902885
160.0,465.2166666666667,28653.0,213.815,207.258,6.556999999999988,8.156881998288434,0.9292151784627153
161.0,468.2166666666667,28833.0,211.976,205.153,6.8230000000000075,8.492459806343492,0.9674435104240502
162.0,471.2166666666667,29013.0,211.911,205.177,6.734000000000009,8.386275272087898,0.9553471872249412
163.0,474.2166666666667,29193.0,213.434,206.999,6.435000000000002,8.018279478838771,0.913425865233368
164.0,477.2166666666667,29373.0,213.286,206.592,6.693999999999988,8.345527082256993,0.9507052374586331
165.0,480.2166666666667,29553.0,211.297,204.74,6.556999999999988,8.179136982590336,0.9317504203865431
166.0,483.2166666666667,29733.0,212.838,206.616,6.22199999999998,7.765427577433004,0.884621497983885
167.0,486.2166666666667,29913.0,211.078,204.296,6.782000000000011,8.46886241069114,0.9647553437671148
168.0,489.2166666666667,30093.0,210.356,204.108,6.2479999999999905,7.80618995599568,0.8892650641012604
169.0,492.2166666666667,30273.0,210.311,203.87,6.4410000000000025,8.051579685104585,0.9172193560690362
170.0,495.2166666666667,30453.0,212.121,205.513,6.608000000000004,8.264687804788307,0.9414961936529702
171.0,498.2166666666667,30633.0,211.782,205.671,6.111000000000018,7.6470911312319565,0.8711408540321369
172.0,501.2166666666667,30813.0,209.521,203.133,6.387999999999977,7.997889771640562,0.9111031118311536
173.0,504.2166666666667,30993.0,209.583,202.827,6.756,8.463025585768829,0.9640904247069912
174.0,507.2166666666667,31173.0,209.568,202.975,6.593000000000018,8.263111168896323,0.9413165865430416
175.0,510.2166666666667,31353.0,211.424,205.046,6.378000000000014,7.997763576668876,0.9110887359601821
176.0,513.2166666666666,31533.0,211.722,205.185,6.537000000000006,8.201345303726269,0.934280346538719
177.0,516.2166666666666,31713.0,211.5,205.041,6.459000000000003,8.107622514933855,0.9236036396877384
178.0,519.2166666666666,31893.0,211.337,204.872,6.464999999999975,8.119278959759486,0.9249315178476973
179.0,522.2166666666666,32073.0,208.96,202.66,6.300000000000011,7.916063597054087,0.9017816427407283
180.0,525.2166666666666,32253.0,208.501,202.319,6.182000000000016,7.77171073689754,0.8853372625547558
181.0,528.2166666666666,32433.0,210.207,204.117,6.090000000000003,7.659897340120502,0.8725997109434295
182.0,531.2166666666666,32613.0,208.824,202.365,6.459000000000003,8.128082720880005,0.9259344241619561
183.0,534.2166666666666,32793.0,210.855,204.695,6.159999999999997,7.75567991596115,0.8835110644878429
184.0,537.2166666666666,32973.0,210.511,204.144,6.36699999999999,8.020279922435156,0.9136537516431272
185.0,540.2166666666666,33153.0,210.451,204.106,6.344999999999999,7.996519616989197,0.9109470266384099
186.0,543.2166666666666,33333.0,210.249,204.015,6.234000000000009,7.860498532307827,0.8954517851351722
187.0,546.2166666666666,33513.0,209.963,203.824,6.138999999999982,7.7445120938671925,0.8822388492219785
188.0,549.2166666666666,33693.0,207.687,201.431,6.256,7.895970976034859,0.8994927327834573
189.0,552.2166666666666,33873.0,207.906,201.318,6.587999999999994,8.319055489029733,0.94768964814031
190.0,555.2166666666666,34053.0,207.694,201.375,6.318999999999988,7.98324910095421,0.9094352768143559
191.0,558.2166666666666,34233.0,207.687,201.235,6.451999999999998,8.15522336300941,0.9290262301516908
192.0,561.2166666666666,34413.0,207.706,201.254,6.451999999999998,8.159157790398943,0.9294744320074588
193.0,564.2166666666666,34593.0,209.222,203.241,5.9809999999999945,7.567171142976998,0.8620365337582073
194.0,567.2166666666666,34773.0,207.548,201.433,6.115000000000009,7.740416285949221,0.8817722632291635
195.0,570.2166666666666,34953.0,209.731,203.318,6.4129999999999825,8.121505347344707,0.9251851433307879
