"Frame","Time (aligned)","Time [ s]","Intensity Ch3-T2","background","Intensity (bg-subst)","bleach-Corrected","Normalized"
1.0,-477.8833333333333,0.0,274.949,271.113,3.8360000000000127,3.8360000000000127,0.7726922952563411
2.0,-474.8833333333333,180.0,272.424,268.686,3.7379999999999995,3.750414362894414,0.7554526283178371
3.0,-471.8833333333333,360.0,269.482,265.579,3.90300000000002,3.9287779386184734,0.7913807202668337
4.0,-468.8833333333333,540.0,267.979,264.388,3.591000000000008,3.626374222389124,0.7304670024390699
5.0,-465.8833333333333,720.0,264.736,261.189,3.5469999999999686,3.593323184333059,0.7238094731230778
6.0,-462.3333333333333,933.0,264.234,261.029,3.204999999999984,3.2570234202929806,0.6560680141631473
7.0,-459.3333333333333,1113.0,261.687,257.927,3.759999999999991,3.8328216506816934,0.7720520747063153
8.0,-456.3333333333333,1293.0,261.035,257.984,3.0510000000000446,3.119545574629918,0.6283756074602567
9.0,-453.3333333333333,1473.0,258.897,255.801,3.0960000000000036,3.1750397060782958,0.6395538889519418
10.0,-450.3333333333333,1653.0,259.496,256.216,3.2799999999999727,3.3736663611556335,0.6795636089756115
11.0,-447.3333333333333,1833.0,256.772,253.304,3.4679999999999893,3.577410064481536,0.7206040651192294
12.0,-444.3333333333333,2013.0,255.239,252.195,3.044000000000011,3.1490327252880537,0.6343152566058783
13.0,-441.3333333333333,2193.0,254.45,251.449,3.0009999999999764,3.113316131257793,0.6271207996142252
14.0,-438.3333333333333,2373.0,255.469,252.416,3.0529999999999973,3.1760754321694042,0.6397625170986038
15.0,-435.3333333333333,2553.0,256.037,253.013,3.0239999999999725,3.154531799152968,0.6354229448244562
16.0,-432.3333333333333,2733.0,253.592,250.522,3.0700000000000216,3.2111694219451867,0.646831561809123
17.0,-429.3333333333333,2913.0,253.93,251.139,2.790999999999997,2.9271114846500073,0.589613266826226
18.0,-426.3333333333333,3093.0,253.509,250.673,2.8359999999999843,2.982107912107436,0.6006912949187648
19.0,-423.3333333333333,3273.0,253.397,250.585,2.8119999999999834,2.964514087041884,0.5971473394776178
20.0,-420.3333333333333,3453.0,252.13,249.267,2.8629999999999995,3.0259674171429944,0.609525992941375
21.0,-417.3333333333333,3633.0,251.171,248.422,2.7489999999999952,2.912770107476192,0.5867244577423959
22.0,-414.3333333333333,3813.0,251.211,247.977,3.234000000000009,3.4351378783301123,0.6919459258938695
23.0,-411.3333333333333,3993.0,250.261,247.251,3.009999999999991,3.20499756839862,0.6455883543839711
24.0,-408.3333333333333,4173.0,247.676,244.559,3.1169999999999902,3.3268993754770246,0.6701432519614758
25.0,-405.3333333333333,4353.0,247.157,243.886,3.271000000000015,3.499531472469205,0.7049168419666381
26.0,-402.3333333333333,4533.0,247.173,244.061,3.1119999999999948,3.3371868345743287,0.6722154731247322
27.0,-399.3333333333333,4713.0,248.641,245.771,2.8700000000000045,3.084748163614497,0.6213663031363558
28.0,-396.3333333333333,4893.0,245.882,243.052,2.8300000000000125,3.0486437551021837,0.6140937279845696
29.0,-393.3333333333333,5073.0,247.273,244.269,3.0039999999999907,3.2433092844463736,0.6533055514142495
30.0,-390.3333333333333,5253.0,247.191,243.958,3.233000000000004,3.498229754276697,0.7046546345584145
31.0,-387.3333333333333,5433.0,245.226,242.299,2.9269999999999925,3.17399143979326,0.6393427348117374
32.0,-384.3333333333333,5613.0,246.729,243.646,3.083000000000027,3.350297654182293,0.6748564088117942
33.0,-381.3333333333333,5793.0,245.642,243.345,2.296999999999997,2.501406974836574,0.5038628510835992
34.0,-378.3333333333333,5973.0,245.302,242.667,2.634999999999991,2.875440205533437,0.5792050292716343
35.0,-375.3333333333333,6153.0,244.964,242.033,2.9310000000000116,3.2049922149956314,0.645587276038496
36.0,-372.3333333333333,6333.0,245.194,242.351,2.8429999999999893,3.115033685732636,0.627466769663598
37.0,-369.3333333333333,6513.0,243.167,240.152,3.015000000000015,3.3100566457595346,0.6667505909907278
38.0,-366.3333333333333,6693.0,244.242,241.603,2.6389999999999816,2.9029357236856073,0.5847435003431314
39.0,-363.3333333333333,6873.0,241.738,238.957,2.781000000000006,3.0650448799076577,0.6173974356933098
40.0,-360.3333333333333,7053.0,240.627,237.934,2.693000000000012,2.9737066230924634,0.5989990083462698
41.0,-357.3333333333333,7233.0,242.166,239.794,2.3719999999999857,2.6241621239577406,0.5285896388648735
42.0,-354.3333333333333,7413.0,239.747,237.286,2.4610000000000127,2.7276603475091954,0.5494374699156888
43.0,-351.3333333333333,7593.0,241.635,238.939,2.695999999999998,2.9935736049522905,0.6030008497991076
44.0,-348.3333333333333,7773.0,239.531,236.91,2.6210000000000093,2.9155286695976885,0.5872801198115477
45.0,-345.3333333333333,7953.0,240.268,237.571,2.6970000000000027,3.0053879156925736,0.605380627401501
46.0,-342.3333333333333,8133.0,237.801,235.222,2.5789999999999793,2.878919093449144,0.5799057878452858
47.0,-339.3333333333333,8313.0,237.316,235.138,2.1779999999999973,2.435476463324642,0.4905823510138445
48.0,-336.3333333333333,8493.0,239.08,236.613,2.467000000000013,2.7633299716088486,0.55662246567077
49.0,-333.3333333333333,8673.0,238.896,236.183,2.712999999999994,3.0439723050383454,0.6131527494986461
50.0,-330.3333333333333,8853.0,237.535,234.959,2.5759999999999934,2.8950362637484006,0.5831522980933489
51.0,-327.3333333333333,9033.0,237.238,234.691,2.546999999999997,2.8671106425643957,0.5775271906040037
52.0,-324.3333333333333,9213.0,236.656,234.084,2.5720000000000027,2.8999072683010554,0.5841334731944945
53.0,-321.3333333333333,9393.0,235.862,233.592,2.269999999999982,2.5634632009681577,0.516362946965914
54.0,-318.3333333333333,9573.0,235.169,233.033,2.136000000000024,2.415912336419743,0.4866415141726471
55.0,-315.3333333333333,9753.0,235.025,232.566,2.459000000000003,2.785530476213694,0.5610943527560064
56.0,-312.3333333333333,9933.0,234.275,231.926,2.349000000000018,2.6649728758651783,0.5368102211282977
57.0,-309.3333333333333,10113.0,235.677,233.357,2.319999999999993,2.6360232484233284,0.530978846239127
58.0,-306.3333333333333,10293.0,233.148,231.206,1.9420000000000073,2.2098011227537424,0.4451241662149695
59.0,-303.3333333333333,10473.0,236.595,234.389,2.205999999999989,2.5138743977765903,0.5063741862367411
60.0,-300.3333333333333,10653.0,234.676,232.304,2.3719999999999857,2.7069385241334234,0.5452634362175339
61.0,-297.3333333333333,10833.0,234.235,231.922,2.3130000000000166,2.643362154821474,0.532457135193625
62.0,-294.3333333333333,11013.0,233.768,231.449,2.3189999999999884,2.653939027964146,0.5345876535422294
63.0,-291.3333333333333,11193.0,231.886,229.629,2.257000000000005,2.5865619332834737,0.5210157656547131
64.0,-288.3333333333333,11373.0,233.676,231.293,2.3829999999999814,2.7346931849140317,0.5508541068490849
65.0,-285.3333333333333,11553.0,230.894,228.831,2.0630000000000166,2.370660090838396,0.47752627394747654
66.0,-282.3333333333333,11733.0,230.85,228.2,2.6500000000000057,3.0492555039897273,0.6142169536498555
67.0,-279.3333333333333,11913.0,231.926,229.555,2.370999999999981,2.731806282050418,0.5502725928762309
68.0,-276.3333333333333,12093.0,231.496,229.297,2.1990000000000123,2.5369191722829276,0.5110161361082132
69.0,-273.3333333333333,12273.0,229.412,227.39,2.02200000000002,2.3357071530910876,0.47048564159765394
70.0,-270.3333333333333,12453.0,229.463,227.431,2.0319999999999823,2.3502263522979967,0.47341026968953887
71.0,-267.3333333333333,12633.0,229.901,227.405,2.4960000000000093,2.8904958695275784,0.5822377184187254
72.0,-264.3333333333333,12813.0,229.528,227.439,2.0889999999999986,2.4221506732772924,0.4878981134492483
73.0,-261.3333333333333,12993.0,229.149,226.952,2.1970000000000027,2.5504745652138667,0.5137466229895763
74.0,-258.3333333333333,13173.0,230.179,227.887,2.2920000000000016,2.6639568020315902,0.5366055515707833
75.0,-255.33333333333334,13353.0,230.025,227.896,2.129000000000019,2.477441278922251,0.49903539837675515
76.0,-252.33333333333334,13533.0,229.853,227.537,2.3160000000000025,2.698205606647136,0.5435043491328719
77.0,-249.33333333333334,13713.0,229.522,227.18,2.3419999999999845,2.731655333104181,0.5502421869618059
78.0,-246.33333333333334,13893.0,229.419,227.289,2.130000000000024,2.4872245705021148,0.5010060641812408
79.0,-243.33333333333334,14073.0,227.505,225.557,1.9480000000000075,2.2772709388313883,0.45871473113821226
80.0,-240.33333333333334,14253.0,228.522,226.353,2.1689999999999827,2.53845657075817,0.5113258170145111
81.0,-237.33333333333334,14433.0,228.27,226.189,2.0810000000000173,2.438152608115372,0.4911214116136326
82.0,-234.33333333333334,14613.0,226.548,224.133,2.414999999999992,2.8325582513470904,0.5705672410533534
83.0,-231.33333333333334,14793.0,227.789,225.512,2.276999999999987,2.67357300947086,0.5385425613199779
84.0,-228.33333333333334,14973.0,226.981,225.177,1.804000000000002,2.1204466407923017,0.4271253341612086
85.0,-225.33333333333334,15153.0,227.076,224.961,2.1149999999999807,2.48861422107359,0.5012859839647855
86.0,-222.33333333333334,15333.0,226.766,224.929,1.836999999999989,2.163751825159564,0.4358483743867662
87.0,-219.33333333333334,15513.0,227.116,224.944,2.1720000000000255,2.5609670134921667,0.5158601354877562
88.0,-216.33333333333334,15693.0,227.01,224.624,2.3859999999999957,2.816147248823443,0.5672615436582923
89.0,-213.33333333333334,15873.0,226.2,224.313,1.8870000000000005,2.2294233873989016,0.44907671384447817
90.0,-210.33333333333334,16053.0,223.918,222.102,1.8160000000000025,2.147668748221729,0.43260873162506647
91.0,-207.33333333333334,16233.0,225.54,223.662,1.877999999999986,2.2231716733301843,0.44781741997246477
92.0,-204.33333333333334,16413.0,223.662,221.618,2.044000000000011,2.42202995026033,0.4878737959974582
93.0,-201.33333333333334,16593.0,224.688,223.163,1.5249999999999773,1.80877688938298,0.36434514240457644
94.0,-198.33333333333334,16773.0,222.429,220.371,2.0579999999999927,2.443275753062325,0.4921533758023688
95.0,-195.33333333333334,16953.0,224.302,221.971,2.330999999999989,2.7699813757921428,0.5579622698326749
96.0,-192.33333333333334,17133.0,222.652,220.331,2.320999999999998,2.760658980730365,0.5560844432326825
97.0,-189.33333333333334,17313.0,222.037,219.998,2.0390000000000157,2.4274682628285453,0.48896924496009003
98.0,-186.33333333333334,17493.0,222.042,220.048,1.9939999999999998,2.3760520382936203,0.4786123835030237
99.0,-183.33333333333334,17673.0,222.017,220.094,1.9230000000000018,2.2935085423074444,0.4619855004550465
100.0,-180.33333333333334,17853.0,221.974,220.065,1.9089999999999918,2.278836629200753,0.45903011093100815
101.0,-177.33333333333334,18033.0,221.944,219.567,2.376999999999981,2.8400017482408875,0.572066597857212
102.0,-174.33333333333334,18213.0,223.663,221.335,2.328000000000003,2.783880670963176,0.5607620295532565
103.0,-171.33333333333334,18393.0,221.621,218.872,2.7489999999999952,3.2901577254975356,0.6627423161287969
104.0,-168.33333333333334,18573.0,222.882,220.73,2.1520000000000152,2.577833003903905,0.5192574819014729
105.0,-165.33333333333334,18753.0,220.784,218.749,2.0349999999999966,2.439741015725876,0.49144136738067196
106.0,-162.33333333333334,18933.0,222.361,220.036,2.3249999999999886,2.789750782441582,0.5619444565375267
107.0,-159.33333333333334,19113.0,222.587,219.982,2.6049999999999898,3.1283095412179005,0.6301409488206368
108.0,-156.33333333333334,19293.0,220.767,218.566,2.2009999999999934,2.645318965110412,0.5328512989667066
109.0,-153.33333333333334,19473.0,220.279,218.077,2.201999999999998,2.6486700767628193,0.533526319340627
110.0,-150.33333333333334,19653.0,220.352,217.857,2.4950000000000045,3.0035180663046734,0.6050039803172153
111.0,-147.33333333333334,19833.0,219.594,217.319,2.2750000000000057,2.740860371079989,0.5520963741154683
112.0,-144.33333333333334,20013.0,219.499,217.032,2.4669999999999845,2.974522087730745,0.5991632688371598
113.0,-141.33333333333334,20193.0,221.04,218.79,2.25,2.7150003627559856,0.5468873466943989
114.0,-138.33333333333334,20373.0,219.275,216.797,2.4780000000000086,2.9924358433060765,0.6027716684492985
115.0,-135.33333333333334,20553.0,220.864,218.377,2.4869999999999948,3.005608494135316,0.6054250589091148
116.0,-132.33333333333334,20733.0,220.676,218.072,2.603999999999985,3.1493987146872966,0.6343889785008054
117.0,-129.33333333333334,20913.0,218.945,215.943,3.001999999999981,3.6334937402482947,0.731901099570384
118.0,-126.33333333333333,21093.0,218.315,215.576,2.7390000000000043,3.3176448953168927,0.6682791055807833
119.0,-123.33333333333333,21273.0,219.458,217.181,2.276999999999987,2.7600831611648657,0.55596845487457
120.0,-120.33333333333333,21453.0,217.613,215.057,2.5560000000000116,3.100547870871887,0.6245488662398727
121.0,-117.33333333333333,21633.0,217.759,215.08,2.6789999999999736,3.2521157701570718,0.6550794574770601
122.0,-114.33333333333333,21813.0,219.614,216.756,2.858000000000004,3.4719102497545067,0.6993530500017772
123.0,-111.33333333333333,21993.0,219.552,216.84,2.711999999999989,3.2969037826982306,0.6641011864161628
124.0,-108.33333333333333,22173.0,217.105,214.405,2.6999999999999886,3.284642169732967,0.661631307931889
125.0,-105.33333333333333,22353.0,218.83,216.392,2.4380000000000166,2.9679949200692395,0.5978484898585645
126.0,-102.33333333333333,22533.0,219.094,216.549,2.5449999999999875,3.1004153485498342,0.6245221720330949
127.0,-99.33333333333333,22713.0,217.012,214.236,2.7760000000000105,3.3841665442062525,0.6816786795027217
128.0,-96.33333333333333,22893.0,217.405,214.167,3.2379999999999995,3.950088865860026,0.7956734182033083
129.0,-93.33333333333333,23073.0,219.2,216.307,2.8930000000000007,3.531618946630032,0.7113802788952899
130.0,-90.33333333333333,23253.0,216.813,213.79,3.022999999999996,3.6928069629021003,0.7438486673887936
131.0,-87.33333333333333,23433.0,218.218,215.13,3.087999999999994,3.7747354566305256,0.7603516694393441
132.0,-84.33333333333333,23613.0,218.039,215.115,2.923999999999978,3.576639149229334,0.7204487782903263
133.0,-81.33333333333333,23793.0,216.657,213.321,3.3360000000000127,4.083289101099637,0.8225041782387564
134.0,-78.33333333333333,23973.0,217.873,214.865,3.0079999999999814,3.684224548611315,0.742119896430194
135.0,-75.33333333333333,24153.0,217.757,214.732,3.0250000000000057,3.7074533496207294,0.7467989150871329
136.0,-72.33333333333333,24333.0,215.803,212.48,3.3230000000000075,4.075309874939404,0.8208969085369525
137.0,-69.33333333333333,24513.0,215.168,212.266,2.9020000000000152,3.5612761067902245,0.7173541733569593
138.0,-66.33333333333333,24693.0,217.141,213.868,3.272999999999996,4.019112722390029,0.8095770162558662
139.0,-63.333333333333336,24873.0,215.269,211.777,3.4920000000000186,4.2907419809117515,0.8642917803919264
140.0,-60.333333333333336,25053.0,214.932,211.978,2.9539999999999793,3.631957139383496,0.7315915793281749
141.0,-57.333333333333336,25233.0,215.302,212.089,3.212999999999994,3.9528571654413507,0.7962310417062933
142.0,-54.333333333333336,25413.0,216.576,213.621,2.954999999999984,3.63769432231515,0.7327472302791043
143.0,-51.333333333333336,25593.0,214.869,211.66,3.209000000000003,3.9528008922195825,0.7962197064912544
144.0,-48.333333333333336,25773.0,216.313,213.025,3.2879999999999825,4.0525814652195,0.8163186845864836
145.0,-45.333333333333336,25953.0,214.597,211.158,3.4390000000000214,4.241261947967895,0.8543249294469974
146.0,-42.333333333333336,26133.0,215.876,212.535,3.341000000000008,4.122879640872737,0.8304789710040625
147.0,-39.333333333333336,26313.0,214.093,210.367,3.725999999999999,4.60072855323293,0.926732926394402
148.0,-36.333333333333336,26493.0,215.339,211.997,3.3419999999999845,4.129030909904845,0.8317180320538953
149.0,-33.333333333333336,26673.0,213.75,210.224,3.5260000000000105,4.3589341331286215,0.8780278467670367
150.0,-30.333333333333332,26853.0,213.618,210.162,3.455999999999989,4.274904869531766,0.8611016829095408
151.0,-27.333333333333332,27033.0,215.557,212.059,3.4979999999999905,4.329379843242282,0.8720746736473945
152.0,-24.333333333333332,27213.0,214.05,210.142,3.9080000000000155,4.839629079963956,0.974855083938131
153.0,-21.333333333333332,27393.0,215.185,211.483,3.701999999999998,4.587161970229983,0.9240001854769534
154.0,-18.333333333333332,27573.0,214.698,211.072,3.6260000000000048,4.495563416235278,0.9055493260065858
155.0,-15.333333333333334,27753.0,214.801,211.054,3.7469999999999857,4.648226127211823,0.9363004471078687
156.0,-12.333333333333334,27933.0,212.97,209.228,3.7419999999999902,4.644651664107579,0.935580436654186
157.0,-9.333333333333334,28113.0,214.556,210.826,3.730000000000018,4.632363391232789,0.9331051880169707
158.0,-6.333333333333333,28293.0,213.046,209.135,3.9110000000000014,4.859870168824438,0.9789322824287706
159.0,-3.3333333333333335,28473.0,214.904,211.028,3.8760000000000048,4.819060147557812,0.9707118473396232
160.0,-0.3333333333333333,28653.0,214.529,210.413,4.1159999999999854,5.120287678047146,1.0313886439840971
161.0,2.6666666666666665,28833.0,213.841,209.895,3.945999999999998,4.911512002906545,0.9893345888177567
162.0,5.666666666666667,29013.0,211.861,208.009,3.852000000000004,4.7971387508290135,0.966296181449738
163.0,8.666666666666666,29193.0,212.309,208.136,4.173000000000002,5.19973275294393,1.0473914065672068
164.0,11.666666666666666,29373.0,213.965,210.12,3.844999999999999,4.793628866339735,0.9655891791812017
165.0,14.666666666666666,29553.0,213.8,209.679,4.121000000000009,5.140494662994497,1.035458972862924
166.0,17.666666666666668,29733.0,213.47,209.669,3.8009999999999877,4.7438749954713675,0.9555671685766224
167.0,20.666666666666668,29913.0,213.664,209.663,4.000999999999976,4.996154306277646,1.00638423836614
168.0,23.666666666666668,30093.0,213.113,209.604,3.508999999999986,4.384110204159535,0.883099107484037
169.0,26.666666666666668,30273.0,213.531,209.548,3.983000000000004,4.978953871413069,1.0029195242120952
170.0,29.666666666666668,30453.0,211.512,206.872,4.639999999999986,5.803291678907024,1.168967353341157
171.0,32.666666666666664,30633.0,212.72,208.52,4.199999999999989,5.255732736241865,1.0586715826956734
172.0,35.666666666666664,30813.0,212.364,208.446,3.9180000000000064,4.90540578041451,0.9881046015725229
173.0,38.666666666666664,30993.0,210.815,206.706,4.109000000000009,5.147213163399082,1.0368122923358902
174.0,41.666666666666664,31173.0,212.485,208.37,4.115000000000009,5.157394579100311,1.0388631529894725
175.0,44.666666666666664,31353.0,210.399,206.104,4.2949999999999875,5.3857627095943315,1.0848637512467258
176.0,47.666666666666664,31533.0,210.21,206.047,4.163000000000011,5.222915786968413,1.0520612062990584
177.0,50.666666666666664,31713.0,210.18,205.93,4.25,5.3347879994533,1.0745958248184413
178.0,53.666666666666664,31893.0,211.633,207.579,4.054000000000002,5.091346775385166,1.0255590265428367
179.0,56.666666666666664,32073.0,211.886,207.692,4.193999999999988,5.269836623181697,1.0615125536997334
180.0,59.666666666666664,32253.0,211.47,207.488,3.9819999999999993,5.005977378570999,1.0083629172704207
181.0,62.666666666666664,32433.0,211.838,207.465,4.3729999999999905,5.500284247676004,1.107932028128012
182.0,65.66666666666667,32613.0,211.202,207.07,4.132000000000005,5.199758136348692,1.0473965195915256
183.0,68.66666666666667,32793.0,211.261,206.977,4.283999999999992,5.393722850645702,1.086467176601144
184.0,71.66666666666667,32973.0,209.578,205.149,4.429000000000002,5.579051323459303,1.1237982201451202
185.0,74.66666666666667,33153.0,209.522,205.136,4.385999999999996,5.527617815620896,1.1134378772815272
186.0,77.66666666666667,33333.0,210.762,206.842,3.9199999999999875,4.942758140302621,0.9956285537871176
187.0,80.66666666666667,33513.0,210.942,206.611,4.331000000000017,5.463671913754528,1.100557140658649
188.0,83.66666666666667,33693.0,208.698,204.409,4.289000000000016,5.413334321645402,1.090417550047471
189.0,86.66666666666667,33873.0,208.492,204.142,4.349999999999994,5.493001119805605,1.1064649747414574
190.0,89.66666666666667,34053.0,208.593,204.333,4.259999999999991,5.381965686036545,1.0840989100454725
191.0,92.66666666666667,34233.0,210.228,206.294,3.9339999999999975,4.9725121993302865,1.0016219667598183
