"Frame","Time (aligned)","Time [ s]","Intensity Ch3-T2","background","Intensity (bg-subst)","bleach-Corrected","Normalized"
1.0,-12.333333333333334,0.0,290.912,277.766,13.145999999999958,13.145999999999958,0.9900898248189021
2.0,-9.333333333333334,180.0,289.81,276.811,12.999000000000024,13.04217129568341,0.982269975156043
3.0,-6.333333333333333,360.0,288.983,275.518,13.465000000000032,13.553931576607122,1.0208131553545088
4.0,-3.3333333333333335,540.0,286.275,272.798,13.476999999999975,13.60975923005793,1.0250178101259344
5.0,-0.3333333333333333,720.0,284.814,271.946,12.867999999999995,13.036053773892922,0.9818092345446121
6.0,3.2166666666666663,933.0,282.39,268.954,13.435999999999979,13.654092566320323,1.0283567714171005
7.0,6.216666666666667,1113.0,279.392,266.473,12.918999999999983,13.16920821945661,0.9918377498102451
8.0,9.216666666666667,1293.0,280.274,266.641,13.632999999999981,13.939287059629299,1.0498361694027694
9.0,12.216666666666667,1473.0,280.758,267.595,13.162999999999954,13.499046398936825,1.016679483062957
10.0,15.216666666666667,1653.0,279.862,266.877,12.985000000000014,13.355810274270217,1.0058916670292661
11.0,18.21666666666667,1833.0,277.049,263.572,13.476999999999975,13.902178615633714,1.0470413502323075
12.0,21.21666666666667,2013.0,275.692,262.181,13.511000000000024,13.97719485918752,1.0526911919665811
13.0,24.21666666666667,2193.0,275.897,262.651,13.245999999999981,13.741747908910693,1.0349585257750604
14.0,27.21666666666667,2373.0,275.972,262.208,13.763999999999953,14.318867424952364,1.0784242309733922
15.0,30.21666666666667,2553.0,273.901,260.501,13.400000000000034,13.978414718469004,1.052783065560245
16.0,33.21666666666666,2733.0,273.907,260.259,13.647999999999968,14.27558315006759,1.075164279646899
17.0,36.21666666666666,2913.0,275.877,262.049,13.828000000000031,14.502363887402522,1.092244250778821
18.0,39.21666666666666,3093.0,274.792,261.219,13.572999999999979,14.272267521521293,1.0749145633768118
19.0,42.21666666666666,3273.0,274.368,261.042,13.326000000000022,14.048760570384225,1.0580811571622135
20.0,45.21666666666666,3453.0,272.089,258.295,13.793999999999983,14.579180772640735,1.0980297076819576
21.0,48.21666666666666,3633.0,271.623,257.899,13.72399999999999,14.54159947435551,1.0951992755325826
22.0,51.21666666666666,3813.0,269.027,255.357,13.669999999999987,14.520202472718758,1.0935877622508101
23.0,54.21666666666666,3993.0,268.29,255.192,13.098000000000013,13.94653094713797,1.050381742148431
24.0,57.21666666666666,4173.0,267.205,253.649,13.555999999999983,14.468863629761513,1.0897211818438464
25.0,60.21666666666666,4353.0,267.854,254.301,13.552999999999997,14.499893013260442,1.0920581571118133
26.0,63.21666666666666,4533.0,265.131,251.778,13.35299999999998,14.319233869560096,1.0784518297165442
27.0,66.21666666666667,4713.0,267.375,253.581,13.794000000000011,14.82613803794367,1.1166292722294655
28.0,69.21666666666667,4893.0,266.283,252.286,13.997000000000014,15.078398106065414,1.1356282169012641
29.0,72.21666666666667,5073.0,267.211,253.874,13.337000000000018,14.39947267864896,1.0844950085111944
30.0,75.21666666666667,5253.0,265.279,251.412,13.86699999999999,15.004624807471345,1.130071987456466
31.0,78.21666666666667,5433.0,263.82,249.815,14.004999999999995,15.186795392656203,1.1437921489331764
32.0,81.21666666666667,5613.0,263.818,250.164,13.653999999999996,14.837808683167246,1.1175082458400647
33.0,84.21666666666667,5793.0,260.635,247.144,13.490999999999985,14.691546146068884,1.1064924958223188
34.0,87.21666666666667,5973.0,262.788,249.085,13.703000000000003,14.95338031742878,1.1262125132309087
35.0,90.21666666666667,6153.0,260.51,246.628,13.882000000000005,15.179700419163833,1.1432577916334536
36.0,93.21666666666667,6333.0,261.436,247.69,13.745999999999981,15.061291960633456,1.1343398690742403
37.0,96.21666666666667,6513.0,259.315,245.302,14.013000000000005,15.384352828201706,1.1586711696810024
38.0,99.21666666666667,6693.0,258.947,244.641,14.306000000000012,15.7367936578426,1.1852152195272052
39.0,102.21666666666667,6873.0,258.667,244.385,14.281999999999982,15.740730303790372,1.1855117076678412
40.0,105.21666666666667,7053.0,259.981,245.811,14.169999999999987,15.647019253330852,1.1784538682084573
41.0,108.21666666666667,7233.0,259.716,245.494,14.222000000000008,15.733909665652291,1.1849980119110115
42.0,111.21666666666667,7413.0,259.805,245.176,14.629000000000019,16.214117522841068,1.2211648241124946
43.0,114.21666666666667,7593.0,256.939,242.124,14.815000000000026,16.450219939676668,1.2389468567097925
44.0,117.21666666666667,7773.0,256.118,242.072,14.045999999999992,15.624385995104527,1.1767492463712153
45.0,120.21666666666667,7953.0,256.645,242.017,14.627999999999986,16.300635680664026,1.22768093150049
46.0,123.21666666666667,8133.0,257.303,242.976,14.326999999999998,15.993126735884536,1.204520922580136
47.0,126.21666666666667,8313.0,255.944,241.021,14.923000000000002,16.687151176397467,1.2567913118032827
48.0,129.21666666666667,8493.0,255.574,241.02,14.554000000000002,16.302190679689897,1.2277980461142979
49.0,132.21666666666667,8673.0,255.354,240.905,14.449000000000012,16.211705062845258,1.220983129901736
50.0,135.21666666666667,8853.0,258.829,244.058,14.771000000000015,16.600380687821342,1.2502562001469777
51.0,138.21666666666667,9033.0,256.013,241.773,14.23999999999998,16.029703788817034,1.2072757200797808
52.0,141.21666666666667,9213.0,253.802,239.569,14.233000000000004,16.047581706737517,1.2086221938833726
53.0,144.21666666666667,9393.0,254.363,239.386,14.977000000000004,16.913210731674194,1.2738169671724122
54.0,147.21666666666667,9573.0,253.406,238.727,14.679000000000002,16.602611042277626,1.2504241790951678
55.0,150.21666666666667,9753.0,254.819,240.355,14.463999999999999,16.38467377306011,1.2340102529806782
56.0,153.21666666666667,9933.0,252.298,237.893,14.405000000000001,16.342671041650746,1.2308468209874472
57.0,156.21666666666667,10113.0,253.506,239.2,14.306000000000012,16.254719220665635,1.2242227373854655
58.0,159.21666666666667,10293.0,253.591,238.848,14.742999999999995,16.776054558577904,1.26348706215235
59.0,162.21666666666667,10473.0,254.096,239.384,14.712000000000018,16.765240317356948,1.2626725885333019
60.0,165.21666666666667,10653.0,254.626,239.615,15.010999999999996,17.130629926545975,1.2901918745634717
61.0,168.21666666666667,10833.0,250.894,236.334,14.560000000000002,16.639581917077557,1.2532086372538522
62.0,171.21666666666667,11013.0,250.49,235.598,14.891999999999996,17.04288917828471,1.2835836878849782
63.0,174.21666666666667,11193.0,250.069,235.149,14.919999999999987,17.098583980766197,1.2877783369974245
64.0,177.21666666666667,11373.0,249.351,234.747,14.603999999999985,16.759319879347373,1.2622266912693623
65.0,180.21666666666667,11553.0,249.095,234.586,14.508999999999986,16.672761637408616,1.2557075649497382
66.0,183.21666666666667,11733.0,248.785,233.855,14.930000000000007,17.179390443232663,1.2938642685558954
67.0,186.21666666666667,11913.0,248.067,233.683,14.384000000000015,16.572881299457432,1.2481850861497277
68.0,189.21666666666667,12093.0,248.567,233.455,15.111999999999995,17.43425308391968,1.313059225749771
69.0,192.21666666666667,12273.0,250.913,235.661,15.25200000000001,17.61830143370175,1.326920810900687
70.0,195.21666666666667,12453.0,248.109,233.025,15.084000000000003,17.44626687896816,1.3139640436590183
71.0,198.21666666666667,12633.0,248.457,233.451,15.006,17.377716754058767,1.3088011970773314
72.0,201.21666666666667,12813.0,248.67,233.515,15.155000000000001,17.5718972970404,1.3234258874610165
73.0,204.21666666666667,12993.0,247.381,231.741,15.639999999999986,18.156314155641688,1.367441191367434
74.0,207.21666666666667,13173.0,248.784,233.328,15.455999999999989,17.964274141448602,1.3529777147197348
75.0,210.21666666666667,13353.0,246.358,231.114,15.244,17.73889847622849,1.3360035664696035
76.0,213.21666666666667,13533.0,247.869,232.846,15.022999999999996,17.502220565051758,1.3181781905670116
77.0,216.21666666666667,13713.0,245.205,230.582,14.623000000000019,17.055933362930297,1.2845661094954037
78.0,219.21666666666667,13893.0,245.402,230.542,14.859999999999985,17.352186440216418,1.306878383753146
79.0,222.21666666666667,14073.0,246.933,231.806,15.126999999999981,17.683920683625377,1.3318629188925957
80.0,225.21666666666667,14253.0,246.473,231.285,15.188000000000017,17.775047670205364,1.3387261398099284
81.0,228.21666666666667,14433.0,244.433,229.163,15.269999999999982,17.890720963921854,1.347438063673612
82.0,231.21666666666667,14613.0,243.853,229.136,14.717000000000013,17.261598254689567,1.3000557425893742
83.0,234.21666666666667,14793.0,244.051,229.126,14.924999999999983,17.524408066031082,1.319849240236705
84.0,237.21666666666667,14973.0,244.017,228.188,15.829000000000008,18.60562631768366,1.4012810970273413
85.0,240.21666666666667,15153.0,243.252,228.577,14.675000000000011,17.267335080026143,1.3004878110811213
86.0,243.21666666666667,15333.0,244.296,229.106,15.189999999999998,17.891883627748488,1.3475256295966636
87.0,246.21666666666667,15513.0,243.741,228.131,15.610000000000014,18.40547655645133,1.3862068355001798
88.0,249.21666666666667,15693.0,242.496,227.462,15.03400000000002,17.744324282821363,1.3364122106122356
89.0,252.21666666666667,15873.0,242.606,226.742,15.864000000000004,18.742751784682657,1.4116086894204074
90.0,255.21666666666667,16053.0,242.2,226.78,15.419999999999987,18.23626216827037,1.37346246885246
91.0,258.2166666666667,16233.0,243.533,228.326,15.206999999999994,18.002008326055567,1.355819661488881
92.0,261.2166666666667,16413.0,243.6,228.058,15.542000000000002,18.416433212791514,1.3870320351013097
93.0,264.2166666666667,16593.0,241.87,226.224,15.646000000000015,18.557457843466594,1.3976532926610419
94.0,267.2166666666667,16773.0,242.8,227.362,15.438000000000017,18.328129774429712,1.3803814694677676
95.0,270.2166666666667,16953.0,243.572,227.411,16.161,19.20449121157316,1.4463845534309048
96.0,273.2166666666667,17133.0,241.119,225.259,15.860000000000014,18.864304797235533,1.420763443787111
97.0,276.2166666666667,17313.0,241.398,224.985,16.412999999999982,19.53998852270945,1.4716525036827033
98.0,279.2166666666667,17493.0,243.731,226.457,17.274,20.58371259251956,1.5502604894911292
99.0,282.2166666666667,17673.0,241.497,224.643,16.854000000000013,20.101296397321715,1.5139273565082265
100.0,285.2166666666667,17853.0,241.08,224.832,16.24800000000002,19.395776611447896,1.4607911963681017
101.0,288.2166666666667,18033.0,240.91,224.48,16.430000000000007,19.630302365838524,1.4784544827731025
102.0,291.2166666666667,18213.0,242.164,226.109,16.05499999999998,19.198970864395907,1.4459687889725399
103.0,294.2166666666667,18393.0,241.662,224.548,17.114000000000004,20.482997204134207,1.5426751189416827
104.0,297.2166666666667,18573.0,242.214,225.427,16.787000000000006,20.10877445935621,1.5144905660875447
105.0,300.2166666666667,18753.0,238.809,222.755,16.054000000000002,19.246979000719058,1.44958451750457
106.0,303.2166666666667,18933.0,240.216,224.043,16.173000000000002,19.405866410506636,1.4615511086899127
107.0,306.2166666666667,19113.0,238.387,222.276,16.11099999999999,19.347483692346163,1.457154019446344
108.0,309.2166666666667,19293.0,237.835,222.436,15.399000000000001,18.50761778452311,1.3938995930392317
109.0,312.2166666666667,19473.0,238.93,223.521,15.40900000000002,18.534676300108252,1.3959375027422252
110.0,315.2166666666667,19653.0,237.437,221.101,16.336000000000013,19.665519491444126,1.4811068574666575
111.0,318.2166666666667,19833.0,237.22,221.116,16.103999999999985,19.4016771058778,1.4612355915831061
112.0,321.2166666666667,20013.0,236.905,221.363,15.542000000000002,18.7393685802641,1.41135388367949
113.0,324.2166666666667,20193.0,236.151,220.842,15.308999999999997,18.472862468191725,1.3912819994702323
114.0,327.2166666666667,20373.0,235.781,220.196,15.585000000000008,18.820465140405595,1.4174616639186435
115.0,330.2166666666667,20553.0,236.051,220.211,15.839999999999975,19.143079431887184,1.4417593306870202
116.0,333.2166666666667,20733.0,235.195,219.654,15.540999999999997,18.796008227709503,1.4156196937066485
117.0,336.2166666666667,20913.0,235.572,219.773,15.799000000000007,19.122440906789873,1.440204941998589
118.0,339.2166666666667,21093.0,237.163,221.343,15.820000000000022,19.1621548900742,1.4431959971296433
119.0,342.2166666666667,21273.0,237.793,221.659,16.134000000000015,19.556952886356715,1.4729301732271796
120.0,345.2166666666667,21453.0,235.419,219.106,16.313000000000017,19.7884340444182,1.4903641561295051
121.0,348.2166666666667,21633.0,235.581,219.357,16.22399999999999,19.694783969775592,1.4833109090583674
122.0,351.2166666666667,21813.0,237.781,221.386,16.39500000000001,19.91671397646084,1.5000255478413476
123.0,354.2166666666667,21993.0,237.85,221.717,16.13299999999998,19.612444220601294,1.4771094981473973
124.0,357.2166666666667,22173.0,235.831,219.551,16.28,19.80517574935294,1.4916250561527828
125.0,360.2166666666667,22353.0,235.176,219.516,15.659999999999997,19.06431519617882,1.4358272092558255
126.0,363.2166666666667,22533.0,235.265,218.803,16.46199999999999,20.05463161800691,1.5104128027902128
127.0,366.2166666666667,22713.0,236.542,220.441,16.101,19.62840977242963,1.4783119422682596
128.0,369.2166666666667,22893.0,234.44,218.204,16.23599999999999,19.80656047748714,1.491729346829476
129.0,372.2166666666667,23073.0,234.143,217.598,16.544999999999987,20.19724696577733,1.5211538650669894
130.0,375.2166666666667,23253.0,233.822,217.362,16.460000000000008,20.10704684398567,1.514360450889038
131.0,378.2166666666667,23433.0,233.325,216.533,16.792,20.5263464338536,1.5459399623357881
132.0,381.2166666666667,23613.0,233.26,217.024,16.23599999999999,19.859888244489692,1.495745722874626
133.0,384.2166666666667,23793.0,233.115,216.368,16.747000000000014,20.498454009626922,1.5438392468773698
134.0,387.2166666666667,23973.0,234.121,218.241,15.879999999999995,19.449962045195488,1.464872167508136
135.0,390.2166666666667,24153.0,234.51,217.793,16.716999999999985,20.488428973755227,1.543084212189251
136.0,393.2166666666667,24333.0,234.651,218.315,16.336000000000013,20.034385229313877,1.5088879478203132
137.0,396.2166666666667,24513.0,232.699,216.468,16.231000000000023,19.918357163787704,1.5001493043492282
138.0,399.2166666666667,24693.0,234.313,217.626,16.686999999999983,20.490966696768236,1.5432753405730475
139.0,402.2166666666667,24873.0,233.718,217.387,16.33099999999999,20.066468296182528,1.5113042811578787
140.0,405.2166666666667,25053.0,231.933,215.381,16.551999999999992,20.350763226498316,1.5327159286364471
141.0,408.2166666666667,25233.0,233.338,216.951,16.387,20.16043273267586,1.5183812043639409
142.0,411.2166666666667,25413.0,230.95,214.915,16.034999999999997,19.7395696982483,1.486683942228756
143.0,414.2166666666667,25593.0,233.504,216.701,16.802999999999997,20.697698158917287,1.55884530232139
144.0,417.2166666666667,25773.0,230.872,214.366,16.506,20.344254764268072,1.5322257443804468
145.0,420.2166666666667,25953.0,233.343,216.085,17.25799999999998,21.28400660018302,1.6030030706085219
146.0,423.2166666666667,26133.0,230.591,214.669,15.921999999999997,19.64815613348565,1.479799137700997
147.0,426.2166666666667,26313.0,231.534,214.427,17.107,21.123098056939277,1.5908842579360691
148.0,429.2166666666667,26493.0,231.889,215.407,16.482,20.36346123789706,1.5336722782394694
149.0,432.2166666666667,26673.0,230.023,213.897,16.126000000000005,19.935386225420295,1.501431846616735
150.0,435.2166666666667,26853.0,230.518,213.608,16.909999999999997,20.916852240677773,1.5753508725647027
151.0,438.2166666666667,27033.0,231.935,215.166,16.769000000000005,20.75453704726416,1.5631261181593832
152.0,441.2166666666667,27213.0,231.243,214.882,16.36099999999999,20.26130280892782,1.5259782252163498
153.0,444.2166666666667,27393.0,230.973,214.589,16.384000000000015,20.301475343124835,1.5290038160687502
154.0,447.2166666666667,27573.0,230.74,214.793,15.947000000000003,19.771304412218395,1.4890740393986428
155.0,450.2166666666667,27753.0,231.413,214.266,17.14700000000002,21.27118585623206,1.6020374774142077
156.0,453.2166666666667,27933.0,229.628,212.444,17.183999999999997,21.329153980765593,1.6064033415755103
157.0,456.2166666666667,28113.0,230.599,214.146,16.453000000000003,20.433317661113332,1.5389335085623566
158.0,459.2166666666667,28293.0,229.658,212.1,17.557999999999993,21.81784720639719,1.6432092285491733
159.0,462.2166666666667,28473.0,230.338,212.896,17.442000000000007,21.685770664010136,1.6332618954657498
160.0,465.2166666666667,28653.0,230.169,211.963,18.206000000000017,22.64819180430679,1.7057465583440647
161.0,468.2166666666667,28833.0,229.632,211.588,18.04400000000001,22.459027516585355,1.6914996667806912
162.0,471.2166666666667,29013.0,230.151,213.265,16.886000000000024,21.029201699506427,1.5838124620984133
163.0,474.2166666666667,29193.0,229.714,213.287,16.426999999999992,20.468729914356548,1.5416005792766436
164.0,477.2166666666667,29373.0,229.248,213.378,15.870000000000005,19.785407050406146,1.4901361783437816
165.0,480.2166666666667,29553.0,229.905,213.311,16.593999999999994,20.69919156460336,1.5589577780382702
166.0,483.2166666666667,29733.0,227.062,211.29,15.77200000000002,19.684397902808403,1.482528683345291
167.0,486.2166666666667,29913.0,227.745,211.244,16.501000000000005,20.605234243411132,1.5518813907204803
168.0,489.2166666666667,30093.0,228.748,212.627,16.12099999999998,20.141419379098334,1.5169492153244768
169.0,492.2166666666667,30273.0,227.1,210.806,16.293999999999983,20.368334014763843,1.534039270997298
170.0,495.2166666666667,30453.0,227.443,210.629,16.81400000000002,21.029428079556702,1.5838295118918349
171.0,498.2166666666667,30633.0,227.83,211.952,15.878000000000014,19.86917247286872,1.4964449637120951
172.0,501.2166666666667,30813.0,227.937,211.638,16.299000000000007,20.40663828866156,1.536924153990848
173.0,504.2166666666667,30993.0,228.03,211.369,16.661,20.870702972838142,1.57187514454775
174.0,507.2166666666667,31173.0,228.166,211.504,16.662000000000006,20.88274811104963,1.5727823230645406
175.0,510.2166666666667,31353.0,226.631,209.982,16.649,20.877197520846632,1.5723642808553722
176.0,513.2166666666666,31533.0,226.329,209.697,16.632000000000005,20.866571071068567,1.5715639507322008
177.0,516.2166666666666,31713.0,227.842,210.98,16.862000000000023,21.165928293360395,1.5941100133959152
178.0,519.2166666666666,31893.0,226.459,208.98,17.479000000000013,21.95156642500181,1.6532802796463262
179.0,522.2166666666666,32073.0,227.946,211.104,16.841999999999985,21.1622766827912,1.593834992669553
180.0,525.2166666666666,32253.0,225.213,208.755,16.458,20.690199823335387,1.5582805658416459
181.0,528.2166666666666,32433.0,225.077,208.229,16.847999999999985,21.191124858185557,1.596007690442453
182.0,531.2166666666666,32613.0,224.612,208.547,16.064999999999998,20.216387817144636,1.5225954565911899
183.0,534.2166666666666,32793.0,224.958,208.437,16.520999999999987,20.80058244993411,1.5665940235802873
184.0,537.2166666666666,32973.0,224.863,208.557,16.30600000000001,20.540079223374896,1.546974246161394
185.0,540.2166666666666,33153.0,224.893,208.274,16.619,20.94470599129133,1.5774486753233763
186.0,543.2166666666666,33333.0,226.712,210.187,16.524999999999977,20.83649955829106,1.569299117412718
187.0,546.2166666666666,33513.0,224.103,207.908,16.19500000000002,20.4304240690959,1.538715577936034
188.0,549.2166666666666,33693.0,225.977,209.645,16.331999999999994,20.61333087925212,1.552491188131208
189.0,552.2166666666666,33873.0,225.649,209.544,16.10499999999999,20.336731732061914,1.5316591478766355
190.0,555.2166666666666,34053.0,223.962,207.814,16.147999999999996,20.400934717868143,1.5364945900620715
191.0,558.2166666666666,34233.0,225.604,209.756,15.848000000000013,20.031614980932,1.50867930680897
192.0,561.2166666666666,34413.0,226.638,209.715,16.923000000000002,21.400717186441625,1.6117931180680756
193.0,564.2166666666666,34593.0,223.698,207.781,15.917000000000002,20.138214860853537,1.5167078673168988
